# [1] Energy
# [2] Total DOS of spin up
# [3] Total DOS of spin down
# [4] PDOS of shell0,spin up,band0
# [5] PDOS of shell0,spin down,band0
-6.000000 0.024669 0.024620 0.024669 0.024620
-5.970000 0.026701 0.026815 0.026701 0.026815
-5.940000 0.028956 0.029271 0.028956 0.029271
-5.910000 0.031435 0.031986 0.031435 0.031986
-5.880000 0.034124 0.034942 0.034124 0.034942
-5.850000 0.036997 0.038102 0.036997 0.038102
-5.820000 0.040009 0.041405 0.040009 0.041405
-5.790000 0.043098 0.044770 0.043098 0.044770
-5.760000 0.046183 0.048088 0.046183 0.048088
-5.730000 0.049165 0.051236 0.049165 0.051236
-5.700000 0.051943 0.054090 0.051943 0.054090
-5.670000 0.054423 0.056554 0.054423 0.056554
-5.640000 0.056530 0.058563 0.056530 0.058563
-5.610000 0.058203 0.060058 0.058203 0.060058
-5.580000 0.059378 0.060959 0.059378 0.060959
-5.550000 0.059962 0.061144 0.059962 0.061144
-5.520000 0.059836 0.060465 0.059836 0.060465
-5.490000 0.058878 0.058812 0.058878 0.058812
-5.460000 0.057017 0.056183 0.057017 0.056183
-5.430000 0.054285 0.052724 0.054285 0.052724
-5.400000 0.050846 0.048717 0.050846 0.048717
-5.370000 0.046965 0.044505 0.046965 0.044505
-5.340000 0.042948 0.040401 0.042948 0.040401
-5.310000 0.039063 0.036630 0.039063 0.036630
-5.280000 0.035502 0.033311 0.035502 0.033311
-5.250000 0.032366 0.030478 0.032366 0.030478
-5.220000 0.029683 0.028114 0.029683 0.028114
-5.190000 0.027437 0.026174 0.027437 0.026174
-5.160000 0.025589 0.024603 0.025589 0.024603
-5.130000 0.024092 0.023350 0.024092 0.023350
-5.100000 0.022897 0.022368 0.022897 0.022368
-5.070000 0.021963 0.021617 0.021963 0.021617
-5.040000 0.021253 0.021065 0.021253 0.021065
-5.010000 0.020739 0.020686 0.020739 0.020686
-4.980000 0.020394 0.020459 0.020394 0.020459
-4.950000 0.020202 0.020367 0.020202 0.020367
-4.920000 0.020147 0.020400 0.020147 0.020400
-4.890000 0.020217 0.020547 0.020217 0.020547
-4.860000 0.020406 0.020804 0.020406 0.020804
-4.830000 0.020709 0.021166 0.020709 0.021166
-4.800000 0.021121 0.021630 0.021121 0.021630
-4.770000 0.021643 0.022198 0.021643 0.022198
-4.740000 0.022275 0.022869 0.022275 0.022869
-4.710000 0.023019 0.023647 0.023019 0.023647
-4.680000 0.023880 0.024535 0.023880 0.024535
-4.650000 0.024860 0.025537 0.024860 0.025537
-4.620000 0.025966 0.026656 0.025966 0.026656
-4.590000 0.027202 0.027898 0.027202 0.027898
-4.560000 0.028572 0.029265 0.028572 0.029265
-4.530000 0.030080 0.030760 0.030080 0.030760
-4.500000 0.031726 0.032382 0.031726 0.032382
-4.470000 0.033509 0.034130 0.033509 0.034130
-4.440000 0.035424 0.035997 0.035424 0.035997
-4.410000 0.037462 0.037977 0.037462 0.037977
-4.380000 0.039611 0.040057 0.039611 0.040057
-4.350000 0.041855 0.042224 0.041855 0.042224
-4.320000 0.044178 0.044462 0.044178 0.044462
-4.290000 0.046558 0.046751 0.046558 0.046751
-4.260000 0.048972 0.049069 0.048972 0.049069
-4.230000 0.051393 0.051393 0.051393 0.051393
-4.200000 0.053789 0.053693 0.053789 0.053693
-4.170000 0.056126 0.055939 0.056126 0.055939
-4.140000 0.058370 0.058102 0.058370 0.058102
-4.110000 0.060491 0.060153 0.060491 0.060153
-4.080000 0.062468 0.062075 0.062468 0.062075
-4.050000 0.064288 0.063854 0.064288 0.063854
-4.020000 0.065951 0.065488 0.065951 0.065488
-3.990000 0.067464 0.066982 0.067464 0.066982
-3.960000 0.068839 0.068345 0.068839 0.068345
-3.930000 0.070091 0.069590 0.070091 0.069590
-3.900000 0.071232 0.070727 0.071232 0.070727
-3.870000 0.072274 0.071764 0.072274 0.071764
-3.840000 0.073218 0.072705 0.073218 0.072705
-3.810000 0.074056 0.073540 0.074056 0.073540
-3.780000 0.074762 0.074249 0.074762 0.074249
-3.750000 0.075297 0.074797 0.075297 0.074797
-3.720000 0.075611 0.075139 0.075611 0.075139
-3.690000 0.075644 0.075220 0.075644 0.075220
-3.660000 0.075339 0.074983 0.075339 0.074983
-3.630000 0.074642 0.074379 0.074642 0.074379
-3.600000 0.073515 0.073365 0.073515 0.073365
-3.570000 0.071939 0.071918 0.071939 0.071918
-3.540000 0.069921 0.070036 0.069921 0.070036
-3.510000 0.067496 0.067748 0.067496 0.067748
-3.480000 0.064733 0.065109 0.064733 0.065109
-3.450000 0.061725 0.062202 0.061725 0.062202
-3.420000 0.058580 0.059129 0.058580 0.059129
-3.390000 0.055413 0.056001 0.055413 0.056001
-3.360000 0.052329 0.052924 0.052329 0.052924
-3.330000 0.049414 0.049989 0.049414 0.049989
-3.300000 0.046736 0.047268 0.046736 0.047268
-3.270000 0.044336 0.044810 0.044336 0.044810
-3.240000 0.042239 0.042646 0.042239 0.042646
-3.210000 0.040453 0.040788 0.040453 0.040788
-3.180000 0.038977 0.039240 0.038977 0.039240
-3.150000 0.037804 0.037997 0.037804 0.037997
-3.120000 0.036925 0.037050 0.036925 0.037050
-3.090000 0.036330 0.036392 0.036330 0.036392
-3.060000 0.036012 0.036016 0.036012 0.036016
-3.030000 0.035966 0.035917 0.035966 0.035917
-3.000000 0.036190 0.036092 0.036190 0.036092
-2.970000 0.036685 0.036544 0.036685 0.036544
-2.940000 0.037454 0.037276 0.037454 0.037276
-2.910000 0.038503 0.038293 0.038503 0.038293
-2.880000 0.039836 0.039601 0.039836 0.039601
-2.850000 0.041456 0.041203 0.041456 0.041203
-2.820000 0.043358 0.043096 0.043358 0.043096
-2.790000 0.045535 0.045272 0.045535 0.045272
-2.760000 0.047968 0.047713 0.047968 0.047713
-2.730000 0.050635 0.050395 0.050635 0.050395
-2.700000 0.053506 0.053291 0.053506 0.053291
-2.670000 0.056547 0.056362 0.056547 0.056362
-2.640000 0.059711 0.059564 0.059711 0.059564
-2.610000 0.062929 0.062826 0.062929 0.062826
-2.580000 0.066109 0.066051 0.066109 0.066051
-2.550000 0.069135 0.069122 0.069135 0.069122
-2.520000 0.071897 0.071920 0.071897 0.071920
-2.490000 0.074319 0.074368 0.074319 0.074368
-2.460000 0.076390 0.076451 0.076390 0.076451
-2.430000 0.078159 0.078225 0.078159 0.078225
-2.400000 0.079715 0.079782 0.079715 0.079782
-2.370000 0.081139 0.081208 0.081139 0.081208
-2.340000 0.082461 0.082534 0.082461 0.082534
-2.310000 0.083647 0.083723 0.083647 0.083723
-2.280000 0.084605 0.084678 0.084605 0.084678
-2.250000 0.085223 0.085285 0.085223 0.085285
-2.220000 0.085429 0.085469 0.085429 0.085469
-2.190000 0.085228 0.085241 0.085228 0.085241
-2.160000 0.084723 0.084710 0.084723 0.084710
-2.130000 0.084096 0.084065 0.084096 0.084065
-2.100000 0.083564 0.083529 0.083564 0.083529
-2.070000 0.083340 0.083315 0.083340 0.083315
-2.040000 0.083603 0.083601 0.083603 0.083601
-2.010000 0.084476 0.084507 0.084476 0.084507
-1.980000 0.086029 0.086098 0.086029 0.086098
-1.950000 0.088265 0.088370 0.088265 0.088370
-1.920000 0.091124 0.091258 0.091124 0.091258
-1.890000 0.094472 0.094622 0.094472 0.094622
-1.860000 0.098112 0.098261 0.098112 0.098261
-1.830000 0.101802 0.101933 0.101802 0.101933
-1.800000 0.105314 0.105417 0.105314 0.105417
-1.770000 0.108505 0.108578 0.108505 0.108578
-1.740000 0.111380 0.111432 0.111380 0.111432
-1.710000 0.114108 0.114150 0.114108 0.114150
-1.680000 0.116965 0.117001 0.116965 0.117001
-1.650000 0.120221 0.120242 0.120221 0.120242
-1.620000 0.124015 0.123994 0.124015 0.123994
-1.590000 0.128230 0.128127 0.128230 0.128127
-1.560000 0.132419 0.132205 0.132419 0.132205
-1.530000 0.135835 0.135511 0.135835 0.135511
-1.500000 0.137628 0.137246 0.137628 0.137246
-1.470000 0.137219 0.136878 0.137219 0.136878
-1.440000 0.134679 0.134476 0.134679 0.134476
-1.410000 0.130810 0.130787 0.130810 0.130787
-1.380000 0.126851 0.126967 0.126851 0.126967
-1.350000 0.123994 0.124145 0.123994 0.124145
-1.320000 0.122987 0.123053 0.122987 0.123053
-1.290000 0.123913 0.123817 0.123913 0.123817
-1.260000 0.126150 0.125905 0.126150 0.125905
-1.230000 0.128551 0.128270 0.128551 0.128270
-1.200000 0.129777 0.129637 0.129777 0.129637
-1.170000 0.128731 0.128890 0.128731 0.128890
-1.140000 0.125169 0.125645 0.125169 0.125645
-1.110000 0.119938 0.120586 0.119938 0.120586
-1.080000 0.114412 0.115027 0.114412 0.115027
-1.050000 0.109778 0.110204 0.109778 0.110204
-1.020000 0.106708 0.106882 0.106708 0.106882
-0.990000 0.105347 0.105292 0.105347 0.105292
-0.960000 0.105473 0.105261 0.105473 0.105261
-0.930000 0.106703 0.106413 0.106703 0.106413
-0.900000 0.108647 0.108344 0.108647 0.108344
-0.870000 0.110972 0.110701 0.110972 0.110701
-0.840000 0.113413 0.113202 0.113413 0.113202
-0.810000 0.115765 0.115623 0.115765 0.115623
-0.780000 0.117872 0.117795 0.117872 0.117795
-0.750000 0.119635 0.119610 0.119635 0.119610
-0.720000 0.121021 0.121027 0.121021 0.121027
-0.690000 0.122060 0.122076 0.122060 0.122076
-0.660000 0.122847 0.122858 0.122847 0.122858
-0.630000 0.123513 0.123514 0.123513 0.123514
-0.600000 0.124207 0.124199 0.124207 0.124199
-0.570000 0.125065 0.125057 0.125065 0.125057
-0.540000 0.126195 0.126199 0.126195 0.126199
-0.510000 0.127671 0.127696 0.127671 0.127696
-0.480000 0.129530 0.129580 0.129530 0.129580
-0.450000 0.131775 0.131852 0.131775 0.131852
-0.420000 0.134389 0.134488 0.134389 0.134488
-0.390000 0.137341 0.137452 0.137341 0.137452
-0.360000 0.140605 0.140715 0.140605 0.140715
-0.330000 0.144166 0.144261 0.144166 0.144261
-0.300000 0.148037 0.148102 0.148037 0.148102
-0.270000 0.152261 0.152282 0.152261 0.152282
-0.240000 0.156915 0.156877 0.156915 0.156877
-0.210000 0.162092 0.161984 0.162092 0.161984
-0.180000 0.167877 0.167701 0.167877 0.167701
-0.150000 0.174290 0.174069 0.174290 0.174069
-0.120000 0.181189 0.180988 0.181189 0.180988
-0.090000 0.188159 0.188072 0.188159 0.188072
-0.060000 0.194417 0.194522 0.194417 0.194522
-0.030000 0.198892 0.199175 0.198892 0.199175
0.000000 0.200569 0.200890 0.200569 0.200890
0.030000 0.198997 0.199179 0.198997 0.199179
0.060000 0.194565 0.194527 0.194565 0.194527
0.090000 0.188277 0.188074 0.188277 0.188074
0.120000 0.181239 0.180987 0.181239 0.180987
0.150000 0.174272 0.174066 0.174272 0.174066
0.180000 0.167816 0.167697 0.167816 0.167697
0.210000 0.162012 0.161982 0.162012 0.161982
0.240000 0.156835 0.156876 0.156835 0.156876
0.270000 0.152195 0.152284 0.152195 0.152284
0.300000 0.147990 0.148106 0.147990 0.148106
0.330000 0.144142 0.144267 0.144142 0.144267
0.360000 0.140604 0.140723 0.140604 0.140723
0.390000 0.137361 0.137461 0.137361 0.137461
0.420000 0.134425 0.134497 0.134425 0.134497
0.450000 0.131822 0.131861 0.131822 0.131861
0.480000 0.129579 0.129588 0.129579 0.129588
0.510000 0.127717 0.127702 0.127717 0.127702
0.540000 0.126233 0.126203 0.126233 0.126203
0.570000 0.125093 0.125060 0.125093 0.125060
0.600000 0.124229 0.124202 0.124229 0.124202
0.630000 0.123534 0.123518 0.123534 0.123518
0.660000 0.122875 0.122864 0.122875 0.122864
0.690000 0.122102 0.122085 0.122102 0.122085
0.720000 0.121079 0.121039 0.121079 0.121039
0.750000 0.119706 0.119625 0.119706 0.119625
0.780000 0.117945 0.117811 0.117945 0.117811
0.810000 0.115824 0.115637 0.115824 0.115637
0.840000 0.113440 0.113212 0.113440 0.113212
0.870000 0.110946 0.110705 0.110946 0.110705
0.900000 0.108553 0.108339 0.108553 0.108339
0.930000 0.106531 0.106398 0.106531 0.106398
0.960000 0.105227 0.105236 0.105227 0.105236
0.990000 0.105055 0.105260 0.105055 0.105260
1.020000 0.106427 0.106849 0.106427 0.106849
1.050000 0.109587 0.110179 0.109587 0.110179
1.080000 0.114388 0.115019 0.114388 0.115019
1.110000 0.120112 0.120597 0.120112 0.120597
1.140000 0.125494 0.125670 0.125494 0.125670
1.170000 0.129079 0.128916 0.129079 0.128916
1.200000 0.130015 0.129652 0.130015 0.129652
1.230000 0.128628 0.128270 0.128628 0.128270
1.260000 0.126105 0.125895 0.126105 0.125895
1.290000 0.123832 0.123807 0.123832 0.123807
1.320000 0.122957 0.123052 0.122957 0.123052
1.350000 0.124063 0.124158 0.124063 0.124158
1.380000 0.127010 0.126993 0.127010 0.126993
1.410000 0.131001 0.130818 0.131001 0.130818
1.440000 0.134825 0.134502 0.134825 0.134502
1.470000 0.137260 0.136889 0.137260 0.136889
1.500000 0.137552 0.137239 0.137552 0.137239
1.530000 0.135677 0.135488 0.135677 0.135488
1.560000 0.132229 0.132174 0.132229 0.132174
1.590000 0.128052 0.128094 0.128052 0.128094
1.620000 0.123870 0.123963 0.123870 0.123963
1.650000 0.120110 0.120217 0.120110 0.120217
1.680000 0.116877 0.116980 0.116877 0.116980
1.710000 0.114032 0.114131 0.114032 0.114131
1.740000 0.111308 0.111413 0.111308 0.111413
1.770000 0.108437 0.108558 0.108437 0.108558
1.800000 0.105257 0.105396 0.105257 0.105396
1.830000 0.101764 0.101912 0.101764 0.101912
1.860000 0.098098 0.098240 0.098098 0.098240
1.890000 0.094484 0.094604 0.094484 0.094604
1.920000 0.091156 0.091243 0.091156 0.091243
1.950000 0.088311 0.088359 0.088311 0.088359
1.980000 0.086079 0.086089 0.086079 0.086089
2.010000 0.084523 0.084503 0.084523 0.084503
2.040000 0.083640 0.083599 0.083640 0.083599
2.070000 0.083363 0.083315 0.083363 0.083315
2.100000 0.083572 0.083530 0.083572 0.083530
2.130000 0.084091 0.084068 0.084091 0.084068
2.160000 0.084711 0.084713 0.084711 0.084713
2.190000 0.085215 0.085243 0.085215 0.085243
2.220000 0.085422 0.085470 0.085422 0.085470
2.250000 0.085227 0.085285 0.085227 0.085285
2.280000 0.084620 0.084677 0.084620 0.084677
2.310000 0.083672 0.083721 0.083672 0.083721
2.340000 0.082493 0.082531 0.082493 0.082531
2.370000 0.081176 0.081204 0.081176 0.081204
2.400000 0.079758 0.079778 0.079758 0.079778
2.430000 0.078209 0.078221 0.078209 0.078221
2.460000 0.076449 0.076446 0.076449 0.076446
2.490000 0.074387 0.074361 0.074387 0.074361
2.520000 0.071970 0.071911 0.071970 0.071911
2.550000 0.069207 0.069109 0.069207 0.069109
2.580000 0.066172 0.066036 0.066172 0.066036
2.610000 0.062978 0.062807 0.062978 0.062807
2.640000 0.059739 0.059542 0.059739 0.059542
2.670000 0.056551 0.056339 0.056551 0.056339
2.700000 0.053485 0.053264 0.053485 0.053264
2.730000 0.050587 0.050368 0.050587 0.050368
2.760000 0.047894 0.047683 0.047894 0.047683
2.790000 0.045435 0.045241 0.045435 0.045241
2.820000 0.043234 0.043065 0.043234 0.043065
2.850000 0.041310 0.041171 0.041310 0.041171
2.880000 0.039672 0.039570 0.039672 0.039570
2.910000 0.038324 0.038262 0.038324 0.038262
2.940000 0.037264 0.037246 0.037264 0.037246
2.970000 0.036488 0.036515 0.036488 0.036515
3.000000 0.035990 0.036065 0.035990 0.036065
3.030000 0.035767 0.035892 0.035767 0.035892
3.060000 0.035819 0.035994 0.035819 0.035994
3.090000 0.036147 0.036373 0.036147 0.036373
3.120000 0.036758 0.037035 0.036758 0.037035
3.150000 0.037659 0.037985 0.037659 0.037985
3.180000 0.038861 0.039233 0.038861 0.039233
3.210000 0.040374 0.040787 0.040374 0.040787
3.240000 0.042205 0.042651 0.042205 0.042651
3.270000 0.044356 0.044822 0.044356 0.044822
3.300000 0.046817 0.047287 0.046817 0.047287
3.330000 0.049562 0.050015 0.049562 0.050015
3.360000 0.052545 0.052957 0.052545 0.052957
3.390000 0.055696 0.056040 0.055696 0.056040
3.420000 0.058921 0.059172 0.058921 0.059172
3.450000 0.062109 0.062246 0.062109 0.062246
3.480000 0.065142 0.065153 0.065142 0.065153
3.510000 0.067908 0.067790 0.067908 0.067790
3.540000 0.070313 0.070074 0.070313 0.070074
3.570000 0.072293 0.071949 0.072293 0.071949
3.600000 0.073815 0.073389 0.073815 0.073389
3.630000 0.074880 0.074395 0.074880 0.074395
3.660000 0.075510 0.074992 0.075510 0.074992
3.690000 0.075750 0.075221 0.075750 0.075221
3.720000 0.075656 0.075134 0.075656 0.075134
3.750000 0.075289 0.074788 0.075289 0.074788
3.780000 0.074708 0.074235 0.074708 0.074235
3.810000 0.073964 0.073522 0.073964 0.073522
3.840000 0.073094 0.072684 0.073094 0.072684
3.870000 0.072121 0.071741 0.072121 0.071741
3.900000 0.071052 0.070701 0.071052 0.070701
3.930000 0.069883 0.069561 0.069883 0.069561
3.960000 0.068603 0.068314 0.068603 0.068314
3.990000 0.067199 0.066949 0.067199 0.066949
4.020000 0.065657 0.065452 0.065657 0.065452
4.050000 0.063967 0.063816 0.063967 0.063816
4.080000 0.062123 0.062036 0.062123 0.062036
4.110000 0.060129 0.060114 0.060129 0.060114
4.140000 0.058000 0.058062 0.058000 0.058062
4.170000 0.055757 0.055901 0.055757 0.055901
4.200000 0.053433 0.053657 0.053433 0.053657
4.230000 0.051059 0.051361 0.051059 0.051361
4.260000 0.048670 0.049041 0.048670 0.049041
4.290000 0.046294 0.046728 0.046294 0.046728
4.320000 0.043959 0.044444 0.043959 0.044444
4.350000 0.041685 0.042212 0.041685 0.042212
4.380000 0.039493 0.040051 0.039493 0.040051
4.410000 0.037399 0.037977 0.037399 0.037977
4.440000 0.035417 0.036003 0.035417 0.036003
4.470000 0.033557 0.034141 0.033557 0.034141
4.500000 0.031827 0.032398 0.031827 0.032398
4.530000 0.030231 0.030781 0.030231 0.030781
4.560000 0.028770 0.029291 0.028770 0.029291
4.590000 0.027443 0.027928 0.027443 0.027928
4.620000 0.026246 0.026690 0.026246 0.026690
4.650000 0.025176 0.025574 0.025176 0.025574
4.680000 0.024227 0.024575 0.024227 0.024575
4.710000 0.023395 0.023690 0.023395 0.023690
4.740000 0.022676 0.022914 0.022676 0.022914
4.770000 0.022067 0.022244 0.022067 0.022244
4.800000 0.021565 0.021678 0.021565 0.021678
4.830000 0.021170 0.021214 0.021170 0.021214
4.860000 0.020881 0.020853 0.020881 0.020853
4.890000 0.020703 0.020597 0.020703 0.020597
4.920000 0.020640 0.020449 0.020640 0.020449
4.950000 0.020698 0.020416 0.020698 0.020416
4.980000 0.020887 0.020506 0.020887 0.020506
5.010000 0.021222 0.020732 0.021222 0.020732
5.040000 0.021718 0.021109 0.021718 0.021109
5.070000 0.022397 0.021658 0.022397 0.021658
5.100000 0.023285 0.022404 0.023285 0.022404
5.130000 0.024415 0.023380 0.024415 0.023380
5.160000 0.025821 0.024624 0.025821 0.024624
5.190000 0.027546 0.026184 0.027546 0.026184
5.220000 0.029629 0.028110 0.029629 0.028110
5.250000 0.032106 0.030457 0.032106 0.030457
5.280000 0.034994 0.033270 0.034994 0.033270
5.310000 0.038274 0.036567 0.038274 0.036567
5.340000 0.041871 0.040316 0.041871 0.040316
5.370000 0.045636 0.044401 0.045636 0.044401
5.400000 0.049349 0.048603 0.049349 0.048603
5.430000 0.052744 0.052613 0.052744 0.052613
5.460000 0.055566 0.056089 0.055566 0.056089
5.490000 0.057632 0.058746 0.057632 0.058746
5.520000 0.058863 0.060432 0.058863 0.060432
5.550000 0.059284 0.061144 0.059284 0.061144
5.580000 0.058983 0.060988 0.058983 0.060988
5.610000 0.058068 0.060111 0.058068 0.060111
5.640000 0.056629 0.058635 0.056629 0.058635
5.670000 0.054734 0.056642 0.054734 0.056642
5.700000 0.052440 0.054188 0.052440 0.054188
5.730000 0.049813 0.051340 0.049813 0.051340
5.760000 0.046938 0.048193 0.046938 0.048193
5.790000 0.043914 0.044868 0.043914 0.044868
5.820000 0.040842 0.041492 0.040842 0.041492
5.850000 0.037809 0.038175 0.037809 0.038175
5.880000 0.034886 0.035000 0.034886 0.035000
5.910000 0.032127 0.032028 0.032127 0.032028
5.940000 0.029567 0.029298 0.029567 0.029298
5.970000 0.027225 0.026828 0.027225 0.026828
6.000000 0.025106 0.024621 0.025106 0.024621
