# Local self energy at real frequency
# [Column] Data
# [1] Frequency
# [2] Re(Sigma_{shell=0, spin=up, 0, 0})
# [3] Im(Sigma_{shell=0, spin=up, 0, 0})
# [4] Re(Sigma_{shell=0, spin=down, 0, 0})
# [5] Im(Sigma_{shell=0, spin=down, 0, 0})
-6.000000 0.670004 -0.361581 0.647100 -0.333791 
-5.970000 0.628335 -0.383668 0.601824 -0.356317 
-5.940000 0.584266 -0.408739 0.553813 -0.382115 
-5.910000 0.537615 -0.437287 0.502846 -0.411752 
-5.880000 0.488202 -0.469905 0.448706 -0.445920 
-5.850000 0.435857 -0.507316 0.391184 -0.485467 
-5.820000 0.380434 -0.550396 0.330107 -0.531432 
-5.790000 0.321842 -0.600219 0.265369 -0.585099 
-5.760000 0.260076 -0.658096 0.196980 -0.648050 
-5.730000 0.195280 -0.725637 0.125148 -0.722237 
-5.700000 0.127838 -0.804805 0.050405 -0.810062 
-5.670000 0.058505 -0.897992 -0.026202 -0.914454 
-5.640000 -0.011383 -1.008071 -0.102824 -1.038931 
-5.610000 -0.079611 -1.138427 -0.176383 -1.187595 
-5.580000 -0.142650 -1.292894 -0.241967 -1.364974 
-5.550000 -0.195071 -1.475521 -0.292038 -1.575554 
-5.520000 -0.228798 -1.689985 -0.315506 -1.822734 
-5.490000 -0.232345 -1.938409 -0.297006 -2.106854 
-5.460000 -0.190383 -2.219293 -0.217091 -2.422021 
-5.430000 -0.084443 -2.524398 -0.054721 -2.751997 
-5.400000 0.103991 -2.835156 0.206457 -3.066950 
-5.370000 0.386894 -3.120586 0.568131 -3.324858 
-5.340000 0.760492 -3.340296 1.008110 -3.481494 
-5.310000 1.198331 -3.455298 1.480300 -3.507477 
-5.280000 1.653962 -3.443601 1.928532 -3.402093 
-5.250000 2.075432 -3.310608 2.306851 -3.192850 
-5.220000 2.423248 -3.085977 2.592400 -2.921495 
-5.190000 2.680045 -2.809785 2.784897 -2.627876 
-5.160000 2.848459 -2.518448 2.897944 -2.340827 
-5.130000 2.942728 -2.237509 2.949934 -2.076870 
-5.100000 2.980629 -1.981171 2.958337 -1.843028 
-5.070000 2.978613 -1.755117 2.937327 -1.640406 
-5.040000 2.949878 -1.559802 2.897444 -1.467013 
-5.010000 2.904188 -1.392990 2.846116 -1.319558 
-4.980000 2.848399 -1.251353 2.788391 -1.194456 
-4.950000 2.787157 -1.131360 2.727611 -1.088314 
-4.920000 2.723526 -1.029707 2.665931 -0.998130 
-4.890000 2.659471 -0.943481 2.604705 -0.921340 
-4.860000 2.596212 -0.870207 2.544747 -0.855804 
-4.830000 2.534471 -0.807815 2.486518 -0.799749 
-4.800000 2.474642 -0.754595 2.430244 -0.751718 
-4.770000 2.416903 -0.709141 2.376003 -0.710514 
-4.740000 2.361294 -0.670301 2.323773 -0.675157 
-4.710000 2.307770 -0.637130 2.273477 -0.644844 
-4.680000 2.256230 -0.608855 2.224999 -0.618912 
-4.650000 2.206542 -0.584840 2.178205 -0.596819 
-4.620000 2.158558 -0.564566 2.132950 -0.578119 
-4.590000 2.112122 -0.547606 2.089087 -0.562445 
-4.560000 2.067077 -0.533612 2.046469 -0.549497 
-4.530000 2.023267 -0.522299 2.004954 -0.539031 
-4.500000 1.980542 -0.513440 1.964402 -0.530849 
-4.470000 1.938757 -0.506851 1.924681 -0.524795 
-4.440000 1.897771 -0.502390 1.885663 -0.520746 
-4.410000 1.857452 -0.499951 1.847227 -0.518612 
-4.380000 1.817671 -0.499457 1.809257 -0.518332 
-4.350000 1.778308 -0.500863 1.771641 -0.519867 
-4.320000 1.739244 -0.504149 1.734273 -0.523206 
-4.290000 1.700370 -0.509320 1.697050 -0.528360 
-4.260000 1.661578 -0.516408 1.659876 -0.535364 
-4.230000 1.622767 -0.525469 1.622658 -0.544276 
-4.200000 1.583841 -0.536588 1.585308 -0.555179 
-4.170000 1.544710 -0.549875 1.547744 -0.568181 
-4.140000 1.505290 -0.565472 1.509889 -0.583419 
-4.110000 1.465507 -0.583552 1.471675 -0.601061 
-4.080000 1.425297 -0.604327 1.433044 -0.621310 
-4.050000 1.384608 -0.628049 1.393950 -0.644407 
-4.020000 1.343408 -0.655015 1.354365 -0.670635 
-3.990000 1.301690 -0.685576 1.314284 -0.700329 
-3.960000 1.259478 -0.720143 1.273731 -0.733879 
-3.930000 1.216840 -0.759195 1.232771 -0.771739 
-3.900000 1.173904 -0.803289 1.191525 -0.814438 
-3.870000 1.130877 -0.853067 1.150187 -0.862583 
-3.840000 1.088071 -0.909269 1.109049 -0.916874 
-3.810000 1.045942 -0.972735 1.068533 -0.978107 
-3.780000 1.005135 -1.044413 1.029239 -1.047180 
-3.750000 0.966549 -1.125351 0.991997 -1.125089 
-3.720000 0.931410 -1.216679 0.957941 -1.212910 
-3.690000 0.901377 -1.319560 0.928602 -1.311765 
-3.660000 0.878652 -1.435115 0.906013 -1.422750 
-3.630000 0.866116 -1.564271 0.892839 -1.546806 
-3.600000 0.867451 -1.707542 0.892493 -1.684525 
-3.570000 0.887221 -1.864678 0.909236 -1.835844 
-3.540000 0.930850 -2.034191 0.948180 -1.999605 
-3.510000 1.004385 -2.212746 1.015117 -2.173001 
-3.480000 1.113897 -2.394508 1.116038 -2.350934 
-3.450000 1.264426 -2.570632 1.256216 -2.525460 
-3.420000 1.458414 -2.729252 1.438798 -2.685620 
-3.390000 1.693912 -2.856366 1.663065 -2.818048 
-3.360000 1.963161 -2.937914 1.922872 -2.908698 
-3.330000 2.252423 -2.962789 2.206085 -2.945618 
-3.300000 2.543694 -2.925844 2.495752 -2.922027 
-3.270000 2.818072 -2.829560 2.773069 -2.838424 
-3.240000 3.059577 -2.683496 3.021169 -2.702655 
-3.210000 3.257888 -2.501756 3.228240 -2.527856 
-3.180000 3.409134 -2.299674 3.388846 -2.329236 
-3.150000 3.514918 -2.091021 3.503362 -2.121081 
-3.120000 3.580439 -1.886447 3.576259 -1.914854 
-3.090000 3.612583 -1.693112 3.614148 -1.718544 
-3.060000 3.618471 -1.515098 3.624192 -1.536919 
-3.030000 3.604599 -1.354148 3.613095 -1.372211 
-3.000000 3.576445 -1.210418 3.586606 -1.224885 
-2.970000 3.538393 -1.083101 3.549375 -1.094302 
-2.940000 3.493822 -0.970874 3.505012 -0.979214 
-2.910000 3.445263 -0.872205 3.456236 -0.878100 
-2.880000 3.394568 -0.785534 3.405042 -0.789381 
-2.850000 3.343067 -0.709377 3.352864 -0.711533 
-2.820000 3.291691 -0.642377 3.300711 -0.643156 
-2.790000 3.241076 -0.583326 3.249273 -0.582998 
-2.760000 3.191645 -0.531163 3.199009 -0.529957 
-2.730000 3.143663 -0.484970 3.150210 -0.483076 
-2.700000 3.097283 -0.443951 3.103043 -0.441529 
-2.670000 3.052580 -0.407426 3.057593 -0.404608 
-2.640000 3.009572 -0.374808 3.013883 -0.371705 
-2.610000 2.968237 -0.345598 2.971894 -0.342299 
-2.580000 2.928530 -0.319364 2.931580 -0.315944 
-2.550000 2.890388 -0.295740 2.892878 -0.292259 
-2.520000 2.853735 -0.274406 2.855710 -0.270916 
-2.490000 2.818493 -0.255092 2.819995 -0.251633 
-2.460000 2.784578 -0.237561 2.785647 -0.234168 
-2.430000 2.751907 -0.221611 2.752579 -0.218311 
-2.400000 2.720395 -0.207064 2.720707 -0.203881 
-2.370000 2.689964 -0.193768 2.689947 -0.190720 
-2.340000 2.660532 -0.181590 2.660216 -0.178694 
-2.310000 2.632024 -0.170414 2.631438 -0.167682 
-2.280000 2.604366 -0.160138 2.603535 -0.157583 
-2.250000 2.577487 -0.150676 2.576435 -0.148305 
-2.220000 2.551318 -0.141948 2.550068 -0.139770 
-2.190000 2.525791 -0.133888 2.524365 -0.131910 
-2.160000 2.500843 -0.126438 2.499261 -0.124665 
-2.130000 2.476410 -0.119545 2.474690 -0.117982 
-2.100000 2.452430 -0.113165 2.450592 -0.111819 
-2.070000 2.428841 -0.107261 2.426902 -0.106134 
-2.040000 2.405582 -0.101800 2.403560 -0.100898 
-2.010000 2.382592 -0.096754 2.380504 -0.096081 
-1.980000 2.359808 -0.092103 2.357672 -0.091662 
-1.950000 2.337167 -0.087829 2.335000 -0.087625 
-1.920000 2.314603 -0.083921 2.312424 -0.083958 
-1.890000 2.292047 -0.080372 2.289874 -0.080655 
-1.860000 2.269426 -0.077183 2.267279 -0.077715 
-1.830000 2.246663 -0.074359 2.244564 -0.075145 
-1.800000 2.223675 -0.071913 2.221647 -0.072957 
-1.770000 2.200371 -0.069868 2.198439 -0.071174 
-1.740000 2.176652 -0.068256 2.174845 -0.069826 
-1.710000 2.152408 -0.067122 2.150758 -0.068958 
-1.680000 2.127518 -0.066525 2.126060 -0.068630 
-1.650000 2.101843 -0.066547 2.100617 -0.068918 
-1.620000 2.075229 -0.067294 2.074283 -0.069926 
-1.590000 2.047501 -0.068904 2.046888 -0.071789 
-1.560000 2.018461 -0.071559 2.018243 -0.074681 
-1.530000 1.987884 -0.075501 1.988134 -0.078834 
-1.500000 1.955519 -0.081046 1.956320 -0.084552 
-1.470000 1.921087 -0.088617 1.922534 -0.092236 
-1.440000 1.884287 -0.098779 1.886490 -0.102425 
-1.410000 1.844813 -0.112291 1.847890 -0.115838 
-1.380000 1.802382 -0.130182 1.806460 -0.133447 
-1.350000 1.756807 -0.153845 1.762006 -0.156565 
-1.320000 1.708122 -0.185162 1.714529 -0.186968 
-1.290000 1.656823 -0.226649 1.664441 -0.227032 
-1.260000 1.604290 -0.281574 1.612945 -0.279860 
-1.230000 1.553512 -0.353924 1.562693 -0.349291 
-1.200000 1.510166 -0.447921 1.518805 -0.439533 
-1.170000 1.483923 -0.566506 1.490163 -0.553888 
-1.140000 1.489046 -0.708024 1.490276 -0.691802 
-1.110000 1.541969 -0.861207 1.535646 -0.844002 
-1.080000 1.653130 -1.001809 1.638666 -0.988290 
-1.050000 1.815240 -1.098213 1.795719 -1.093020 
-1.020000 1.999845 -1.128219 1.981027 -1.132712 
-0.990000 2.171168 -1.093074 2.157899 -1.104469 
-0.960000 2.305204 -1.013477 2.299024 -1.027306 
-0.930000 2.396027 -0.914207 2.395781 -0.926983 
-0.900000 2.449602 -0.813383 2.453187 -0.823418 
-0.870000 2.475677 -0.720610 2.481200 -0.727553 
-0.840000 2.483196 -0.639429 2.489333 -0.643603 
-0.810000 2.478894 -0.570113 2.484842 -0.572068 
-0.780000 2.467385 -0.511530 2.472713 -0.511820 
-0.750000 2.451683 -0.462118 2.456192 -0.461222 
-0.720000 2.433703 -0.420329 2.437331 -0.418632 
-0.690000 2.414639 -0.384795 2.417399 -0.382599 
-0.660000 2.395226 -0.354372 2.397171 -0.351907 
-0.630000 2.375904 -0.328116 2.377106 -0.325562 
-0.600000 2.356927 -0.305266 2.357467 -0.302761 
-0.570000 2.338434 -0.285200 2.338397 -0.282853 
-0.540000 2.320484 -0.267414 2.319956 -0.265310 
-0.510000 2.303092 -0.251493 2.302158 -0.249699 
-0.480000 2.286236 -0.237093 2.284985 -0.235661 
-0.450000 2.269873 -0.223924 2.268396 -0.222895 
-0.420000 2.253941 -0.211740 2.252331 -0.211141 
-0.390000 2.238359 -0.200331 2.236716 -0.200173 
-0.360000 2.223032 -0.189515 2.221459 -0.189794 
-0.330000 2.207842 -0.179136 2.206449 -0.179826 
-0.300000 2.192649 -0.169067 2.191544 -0.170112 
-0.270000 2.177288 -0.159210 2.176572 -0.160525 
-0.240000 2.161561 -0.149511 2.161320 -0.150969 
-0.210000 2.145248 -0.139969 2.145527 -0.141407 
-0.180000 2.128108 -0.130657 2.128895 -0.131882 
-0.150000 2.109904 -0.121744 2.111106 -0.122554 
-0.120000 2.090440 -0.113505 2.091866 -0.113734 
-0.090000 2.069611 -0.106320 2.070986 -0.105891 
-0.060000 2.047462 -0.100639 2.048477 -0.099620 
-0.030000 2.024231 -0.096917 2.024626 -0.095534 
0.000000 2.000348 -0.095507 2.000009 -0.094106 
0.030000 1.976378 -0.096574 1.975387 -0.095519 
0.060000 1.952910 -0.100040 1.951524 -0.099596 
0.090000 1.930442 -0.105607 1.929001 -0.105868 
0.120000 1.909290 -0.112834 1.908111 -0.113719 
0.150000 1.889564 -0.121244 1.888868 -0.122554 
0.180000 1.871200 -0.130408 1.871084 -0.131897 
0.210000 1.854012 -0.140001 1.854466 -0.141435 
0.240000 1.837754 -0.149812 1.838693 -0.151005 
0.270000 1.822167 -0.159738 1.823463 -0.160562 
0.300000 1.807004 -0.169762 1.808516 -0.170145 
0.330000 1.792047 -0.179932 1.793637 -0.179846 
0.360000 1.777110 -0.190343 1.778650 -0.189798 
0.390000 1.762037 -0.201126 1.763416 -0.200154 
0.420000 1.746700 -0.212441 1.747821 -0.211094 
0.450000 1.730990 -0.224474 1.731772 -0.222815 
0.480000 1.714822 -0.237441 1.715195 -0.235545 
0.510000 1.698124 -0.251593 1.698031 -0.249541 
0.540000 1.680845 -0.267220 1.680237 -0.265106 
0.570000 1.662956 -0.284671 1.661794 -0.282599 
0.600000 1.644460 -0.304364 1.642713 -0.302453 
0.630000 1.625404 -0.326809 1.623057 -0.325195 
0.660000 1.605908 -0.352631 1.602962 -0.351476 
0.690000 1.586205 -0.382607 1.582690 -0.382102 
0.720000 1.566708 -0.417696 1.562698 -0.418067 
0.750000 1.548116 -0.459078 1.543752 -0.460592 
0.780000 1.531586 -0.508176 1.527119 -0.511133 
0.810000 1.519000 -0.566629 1.514843 -0.571342 
0.840000 1.513358 -0.636145 1.510167 -0.642875 
0.870000 1.519331 -0.718070 1.518081 -0.726888 
0.900000 1.543853 -0.812401 1.545862 -0.822915 
0.930000 1.596333 -0.915837 1.603076 -0.926776 
0.960000 1.687326 -1.018727 1.699779 -1.027531 
0.990000 1.823734 -1.102169 1.841105 -1.105175 
1.020000 1.999881 -1.139663 2.018468 -1.133749 
1.050000 2.190334 -1.108732 2.204402 -1.094036 
1.080000 2.356677 -1.008105 2.361930 -0.988926 
1.110000 2.468798 -0.862077 2.465096 -0.844117 
1.140000 2.519922 -0.704544 2.510331 -0.691486 
1.170000 2.522060 -0.560649 2.510181 -0.553326 
1.200000 2.492895 -0.441378 2.481270 -0.438886 
1.230000 2.447237 -0.347732 2.437163 -0.348662 
1.260000 2.394841 -0.276225 2.386754 -0.279301 
1.290000 2.341275 -0.222297 2.335155 -0.226563 
1.320000 2.289374 -0.181784 2.285004 -0.186589 
1.350000 2.240389 -0.151344 2.237494 -0.156269 
1.380000 2.194715 -0.128436 2.193027 -0.133223 
1.410000 2.152315 -0.111179 2.151597 -0.115676 
1.440000 2.112953 -0.098191 2.113005 -0.102315 
1.470000 2.076317 -0.088459 2.076974 -0.092169 
1.500000 2.042078 -0.081237 2.043204 -0.084519 
1.530000 2.009921 -0.075973 2.011408 -0.078830 
1.560000 1.979558 -0.072256 1.981317 -0.074700 
1.590000 1.950731 -0.069778 1.952691 -0.071826 
1.620000 1.923213 -0.068307 1.925314 -0.069978 
1.650000 1.896804 -0.067666 1.898997 -0.068981 
1.680000 1.871325 -0.067721 1.873572 -0.068701 
1.710000 1.846624 -0.068371 1.848889 -0.069036 
1.740000 1.822561 -0.069538 1.824816 -0.069907 
1.770000 1.799014 -0.071165 1.801235 -0.071257 
1.800000 1.775875 -0.073209 1.778041 -0.073041 
1.830000 1.753043 -0.075639 1.755135 -0.075228 
1.860000 1.730428 -0.078436 1.732430 -0.077797 
1.890000 1.707948 -0.081587 1.709845 -0.080733 
1.920000 1.685525 -0.085086 1.687304 -0.084032 
1.950000 1.663088 -0.088935 1.664734 -0.087695 
1.980000 1.640566 -0.093140 1.642069 -0.091726 
2.010000 1.617895 -0.097714 1.619242 -0.096138 
2.040000 1.595011 -0.102673 1.596191 -0.100947 
2.070000 1.571850 -0.108039 1.572852 -0.106176 
2.100000 1.548353 -0.113839 1.549164 -0.111851 
2.130000 1.524457 -0.120106 1.525066 -0.118006 
2.160000 1.500100 -0.126877 1.500495 -0.124678 
2.190000 1.475220 -0.134197 1.475389 -0.131912 
2.220000 1.449753 -0.142116 1.449683 -0.139761 
2.250000 1.423633 -0.150694 1.423311 -0.148284 
2.280000 1.396792 -0.159997 1.396204 -0.157550 
2.310000 1.369162 -0.170101 1.368293 -0.167637 
2.340000 1.340667 -0.181096 1.339504 -0.178635 
2.370000 1.311235 -0.193082 1.309761 -0.190648 
2.400000 1.280785 -0.206174 1.278985 -0.203794 
2.430000 1.249236 -0.220504 1.247095 -0.218210 
2.460000 1.216505 -0.236227 1.214006 -0.234053 
2.490000 1.182505 -0.253518 1.179633 -0.251504 
2.520000 1.147148 -0.272582 1.143889 -0.270774 
2.550000 1.110348 -0.293653 1.106688 -0.292104 
2.580000 1.072017 -0.317007 1.067947 -0.315777 
2.610000 1.032078 -0.342961 1.027589 -0.342122 
2.640000 0.990458 -0.371889 0.985550 -0.371521 
2.670000 0.947102 -0.404224 0.941783 -0.404421 
2.700000 0.901982 -0.440475 0.896268 -0.441343 
2.730000 0.855105 -0.481234 0.849028 -0.482897 
2.760000 0.806532 -0.527197 0.800146 -0.529795 
2.790000 0.756405 -0.579174 0.749790 -0.582863 
2.820000 0.704976 -0.638108 0.698249 -0.643063 
2.850000 0.652655 -0.705091 0.645983 -0.711501 
2.880000 0.600071 -0.781372 0.593684 -0.789434 
2.910000 0.548154 -0.868358 0.542361 -0.878270 
2.940000 0.498239 -0.967602 0.493455 -0.979536 
2.970000 0.452208 -1.080744 0.448968 -1.094824 
3.000000 0.412647 -1.209415 0.411629 -1.225661 
3.030000 0.383039 -1.355038 0.385066 -1.373303 
3.060000 0.367927 -1.518520 0.373954 -1.538392 
3.090000 0.373029 -1.699768 0.384071 -1.720458 
3.120000 0.405160 -1.897022 0.422159 -1.917251 
3.150000 0.471824 -2.106040 0.495416 -2.123965 
3.180000 0.580287 -2.319294 0.610478 -2.332551 
3.210000 0.736001 -2.525519 0.771813 -2.531463 
3.240000 0.940527 -2.710126 0.979752 -2.706327 
3.270000 1.189506 -2.856947 1.228763 -2.841865 
3.300000 1.471671 -2.951307 1.506904 -2.924927 
3.330000 1.769839 -2.983618 1.797182 -2.947719 
3.360000 2.064019 -2.952003 2.080703 -2.909855 
3.390000 2.335581 -2.862662 2.340497 -2.818253 
3.420000 2.570769 -2.727851 2.564477 -2.684983 
3.450000 2.762300 -2.562535 2.746581 -2.524164 
3.480000 2.908940 -2.381219 2.886183 -2.349186 
3.510000 3.013851 -2.195900 2.986507 -2.170997 
3.540000 3.082646 -2.015281 3.052880 -1.997504 
3.570000 3.121783 -1.844931 3.091323 -1.833767 
3.600000 3.137522 -1.687885 3.107639 -1.682556 
3.630000 3.135376 -1.545358 3.106942 -1.544996 
3.660000 3.119920 -1.417376 3.093486 -1.421129 
3.690000 3.094796 -1.303255 3.070676 -1.310348 
3.720000 3.062827 -1.201943 3.041168 -1.211697 
3.750000 3.026151 -1.112239 3.006985 -1.124077 
3.780000 2.986362 -1.032919 2.969650 -1.046361 
3.810000 2.944633 -0.962821 2.930292 -0.977469 
3.840000 2.901812 -0.900876 2.889734 -0.916407 
3.870000 2.858502 -0.846127 2.848571 -0.862275 
3.900000 2.815126 -0.797729 2.807223 -0.814278 
3.930000 2.771970 -0.754943 2.765978 -0.771718 
3.960000 2.729217 -0.717130 2.725028 -0.733987 
3.990000 2.686977 -0.683738 2.684492 -0.700557 
4.020000 2.645304 -0.654294 2.644434 -0.670977 
4.050000 2.604213 -0.628395 2.604878 -0.644855 
4.080000 2.563687 -0.605694 2.565817 -0.621860 
4.110000 2.523687 -0.585900 2.527223 -0.601707 
4.140000 2.484160 -0.568767 2.489049 -0.584157 
4.170000 2.445036 -0.554090 2.451237 -0.569008 
4.200000 2.406242 -0.541701 2.413719 -0.556092 
4.230000 2.367692 -0.531461 2.376419 -0.545273 
4.260000 2.329298 -0.523266 2.339254 -0.536443 
4.290000 2.290966 -0.517036 2.302137 -0.529519 
4.320000 2.252598 -0.512717 2.264975 -0.524444 
4.350000 2.214092 -0.510282 2.227671 -0.521183 
4.380000 2.175341 -0.509728 2.190125 -0.519725 
4.410000 2.136237 -0.511077 2.152230 -0.520084 
4.440000 2.096665 -0.514377 2.113876 -0.522294 
4.470000 2.056508 -0.519706 2.074946 -0.526421 
4.500000 2.015644 -0.527171 2.035322 -0.532552 
4.530000 1.973949 -0.536912 1.994876 -0.540811 
4.560000 1.931292 -0.549111 1.953476 -0.551353 
4.590000 1.887543 -0.563991 1.910987 -0.564376 
4.620000 1.842569 -0.581829 1.867266 -0.580123 
4.650000 1.796241 -0.602962 1.822170 -0.598894 
4.680000 1.748434 -0.627801 1.775553 -0.621052 
4.710000 1.699037 -0.656842 1.727273 -0.647044 
4.740000 1.647962 -0.690687 1.677200 -0.677407 
4.770000 1.595157 -0.730064 1.625221 -0.712800 
4.800000 1.540632 -0.775855 1.571262 -0.754022 
4.830000 1.484489 -0.829121 1.515307 -0.802046 
4.860000 1.426969 -0.891147 1.457436 -0.858058 
4.890000 1.368528 -0.963476 1.397881 -0.923503 
4.920000 1.309932 -1.047946 1.337104 -1.000135 
4.950000 1.252413 -1.146728 1.275919 -1.090075 
4.980000 1.197874 -1.262321 1.215674 -1.195853 
5.010000 1.149189 -1.397507 1.158510 -1.320434 
5.040000 1.110584 -1.555175 1.107737 -1.467164 
5.070000 1.088131 -1.737941 1.068347 -1.639578 
5.100000 1.090258 -1.947411 1.047670 -1.840914 
5.130000 1.128115 -2.182905 1.056097 -2.073141 
5.160000 1.215371 -2.439505 1.107593 -2.335194 
5.190000 1.366750 -2.705579 1.219372 -2.620216 
5.220000 1.594450 -2.960599 1.409615 -2.912053 
5.250000 1.902215 -3.175165 1.691919 -3.182454 
5.280000 2.278738 -3.315670 2.066413 -3.392213 
5.310000 2.694722 -3.354297 2.511128 -3.499925 
5.340000 3.108105 -3.280372 2.981160 -3.477744 
5.370000 3.476815 -3.105640 3.420950 -3.325386 
5.400000 3.771772 -2.859247 3.784226 -3.071114 
5.430000 3.982470 -2.576185 4.048041 -2.758490 
5.460000 4.114043 -2.286824 4.213263 -2.429478 
5.490000 4.180296 -2.011978 4.295693 -2.114230 
5.520000 4.197380 -1.762943 4.316143 -1.829392 
5.550000 4.180002 -1.543922 4.294046 -1.581199 
5.580000 4.139935 -1.354758 4.244861 -1.369530 
5.610000 4.085900 -1.193040 4.179791 -1.191110 
5.640000 4.024031 -1.055464 4.106480 -1.041511 
5.670000 3.958487 -0.938588 4.029923 -0.916224 
5.700000 3.891997 -0.839206 3.953261 -0.811144 
5.730000 3.826298 -0.754500 3.878386 -0.722743 
5.760000 3.762447 -0.682065 3.806375 -0.648076 
5.790000 3.701051 -0.619889 3.737781 -0.584728 
5.820000 3.642419 -0.566303 3.672825 -0.530732 
5.850000 3.586668 -0.519932 3.611526 -0.484494 
5.880000 3.533792 -0.479643 3.553784 -0.444723 
5.910000 3.483711 -0.444503 3.499426 -0.410370 
5.940000 3.436301 -0.413743 3.448250 -0.380580 
5.970000 3.391414 -0.386724 3.400037 -0.354656 
6.000000 3.348892 -0.362918 3.354566 -0.332025 
