# [1] Energy
# [2] Total DOS of spin up
# [3] Total DOS of spin down
# [4] PDOS of shell0,spin up,band0
# [5] PDOS of shell0,spin up,band1
# [6] PDOS of shell0,spin down,band0
# [7] PDOS of shell0,spin down,band1
# [8] PDOS of shell1,spin up,band0
# [9] PDOS of shell1,spin up,band1
# [10] PDOS of shell1,spin up,band2
# [11] PDOS of shell1,spin down,band0
# [12] PDOS of shell1,spin down,band1
# [13] PDOS of shell1,spin down,band2
-3.000000 0.334917 0.124376 0.028363 0.024219 0.023011 -0.002933 0.069502 0.051262 0.161570 0.036432 0.038308 0.029556
-2.987469 0.337128 0.125476 0.028857 0.024600 0.023510 -0.002931 0.070214 0.051573 0.161884 0.036679 0.038461 0.029758
-2.974937 0.339346 0.126600 0.029364 0.024989 0.024026 -0.002930 0.070933 0.051887 0.162173 0.036927 0.038615 0.029962
-2.962406 0.341573 0.127749 0.029887 0.025388 0.024562 -0.002928 0.071658 0.052204 0.162436 0.037178 0.038769 0.030167
-2.949875 0.343809 0.128923 0.030425 0.025797 0.025117 -0.002925 0.072391 0.052523 0.162674 0.037431 0.038925 0.030375
-2.937343 0.346057 0.130123 0.030980 0.026216 0.025694 -0.002923 0.073130 0.052844 0.162887 0.037686 0.039081 0.030584
-2.924812 0.348319 0.131352 0.031551 0.026644 0.026294 -0.002920 0.073876 0.053169 0.163078 0.037944 0.039239 0.030795
-2.912281 0.350598 0.132610 0.032140 0.027084 0.026917 -0.002916 0.074629 0.053496 0.163249 0.038204 0.039397 0.031008
-2.899749 0.352898 0.133898 0.032748 0.027535 0.027565 -0.002912 0.075388 0.053825 0.163402 0.038466 0.039556 0.031224
-2.887218 0.355225 0.135218 0.033375 0.027997 0.028240 -0.002908 0.076154 0.054157 0.163542 0.038730 0.039716 0.031441
-2.874687 0.357587 0.136572 0.034021 0.028471 0.028942 -0.002903 0.076926 0.054492 0.163676 0.038997 0.039877 0.031660
-2.862155 0.359992 0.137962 0.034689 0.028957 0.029674 -0.002898 0.077705 0.054830 0.163812 0.039266 0.040038 0.031881
-2.849624 0.362455 0.139388 0.035379 0.029456 0.030437 -0.002893 0.078490 0.055170 0.163960 0.039538 0.040201 0.032104
-2.837093 0.364989 0.140853 0.036091 0.029968 0.031233 -0.002886 0.079281 0.055513 0.164136 0.039812 0.040365 0.032330
-2.824561 0.367615 0.142359 0.036827 0.030494 0.032064 -0.002880 0.080077 0.055859 0.164357 0.040088 0.040529 0.032557
-2.812030 0.370356 0.143909 0.037588 0.031034 0.032933 -0.002872 0.080880 0.056207 0.164647 0.040367 0.040695 0.032787
-2.799499 0.373245 0.145504 0.038376 0.031589 0.033840 -0.002864 0.081688 0.056559 0.165034 0.040648 0.040862 0.033018
-2.786967 0.376316 0.147148 0.039190 0.032159 0.034790 -0.002855 0.082502 0.056913 0.165553 0.040932 0.041029 0.033252
-2.774436 0.379616 0.148843 0.040033 0.032745 0.035785 -0.002846 0.083320 0.057270 0.166248 0.041218 0.041198 0.033488
-2.761905 0.383200 0.150591 0.040907 0.033347 0.036827 -0.002836 0.084144 0.057630 0.167173 0.041507 0.041367 0.033726
-2.749373 0.387137 0.152397 0.041811 0.033966 0.037920 -0.002825 0.084973 0.057992 0.168395 0.041798 0.041537 0.033966
-2.736842 0.391511 0.154264 0.042749 0.034604 0.039067 -0.002813 0.085807 0.058358 0.169994 0.042092 0.041709 0.034209
-2.724311 0.396423 0.156195 0.043721 0.035259 0.040271 -0.002800 0.086645 0.058726 0.172072 0.042389 0.041881 0.034454
-2.711779 0.402000 0.158195 0.044729 0.035934 0.041538 -0.002787 0.087487 0.059097 0.174752 0.042688 0.042055 0.034701
-2.699248 0.408398 0.160267 0.045776 0.036629 0.042870 -0.002772 0.088333 0.059472 0.178188 0.042990 0.042229 0.034950
-2.686717 0.415809 0.162418 0.046862 0.037345 0.044274 -0.002756 0.089183 0.059849 0.182570 0.043294 0.042405 0.035202
-2.674185 0.424467 0.164652 0.047991 0.038083 0.045753 -0.002740 0.090036 0.060229 0.188128 0.043601 0.042581 0.035456
-2.661654 0.434652 0.166974 0.049163 0.038843 0.047313 -0.002721 0.090893 0.060612 0.195141 0.043911 0.042759 0.035712
-2.649123 0.446681 0.169391 0.050382 0.039627 0.048962 -0.002702 0.091752 0.060998 0.203922 0.044224 0.042938 0.035971
-2.636591 0.460860 0.171910 0.051650 0.040435 0.050704 -0.002681 0.092614 0.061387 0.214773 0.044539 0.043117 0.036232
-2.624060 0.477340 0.174538 0.052969 0.041269 0.052547 -0.002659 0.093479 0.061780 0.227843 0.044857 0.043298 0.036495
-2.611529 0.495726 0.177282 0.054343 0.042129 0.054499 -0.002635 0.094345 0.062175 0.242734 0.045178 0.043480 0.036761
-2.598997 0.514094 0.180152 0.055773 0.043018 0.056568 -0.002610 0.095213 0.062573 0.257518 0.045501 0.043663 0.037029
-2.586466 0.526805 0.183156 0.057263 0.043935 0.058764 -0.002583 0.096082 0.062974 0.266551 0.045828 0.043847 0.037300
-2.573935 0.521002 0.186306 0.058816 0.044883 0.061097 -0.002554 0.096953 0.063379 0.256971 0.046157 0.044032 0.037573
-2.561404 0.476525 0.189611 0.060436 0.045863 0.063577 -0.002522 0.097824 0.063786 0.208617 0.046489 0.044218 0.037849
-2.548872 0.383783 0.193085 0.062125 0.046876 0.066217 -0.002489 0.098695 0.064197 0.111890 0.046824 0.044406 0.038127
-2.536341 0.271587 0.196740 0.063888 0.047923 0.069029 -0.002453 0.099567 0.064610 -0.004401 0.047162 0.044594 0.038408
-2.523810 0.184693 0.200590 0.065729 0.049007 0.072027 -0.002415 0.100438 0.065027 -0.095507 0.047502 0.044784 0.038691
-2.511278 0.137111 0.204651 0.067652 0.050128 0.075227 -0.002374 0.101308 0.065447 -0.147424 0.047846 0.044975 0.038977
-2.498747 0.117898 0.208940 0.069661 0.051289 0.078644 -0.002330 0.102177 0.065870 -0.171099 0.048193 0.045167 0.039266
-2.486216 0.113903 0.213474 0.071760 0.052492 0.082297 -0.002283 0.103044 0.066296 -0.179690 0.048542 0.045360 0.039557
-2.473684 0.116985 0.218272 0.073955 0.053738 0.086204 -0.002232 0.103910 0.066726 -0.181343 0.048895 0.045555 0.039850
-2.461153 0.123055 0.223354 0.076250 0.055030 0.090384 -0.002178 0.104773 0.067158 -0.180155 0.049250 0.045751 0.040147
-2.448622 0.130238 0.228741 0.078650 0.056369 0.094859 -0.002120 0.105633 0.067594 -0.178008 0.049609 0.045947 0.040446
-2.436090 0.137736 0.234455 0.081161 0.057758 0.099649 -0.002058 0.106490 0.068033 -0.175706 0.049971 0.046146 0.040747
-2.423559 0.145244 0.240518 0.083788 0.059199 0.104777 -0.001990 0.107343 0.068475 -0.173562 0.050335 0.046345 0.041052
-2.411028 0.152676 0.246953 0.086536 0.060695 0.110263 -0.001918 0.108193 0.068920 -0.171669 0.050703 0.046546 0.041359
-2.398496 0.160038 0.253780 0.089412 0.062248 0.116130 -0.001840 0.109038 0.069369 -0.170029 0.051074 0.046747 0.041669
-2.385965 0.167369 0.261019 0.092419 0.063862 0.122397 -0.001757 0.109878 0.069821 -0.168611 0.051448 0.046951 0.041981
-2.373434 0.174714 0.268688 0.095565 0.065538 0.129078 -0.001666 0.110714 0.070276 -0.167379 0.051825 0.047155 0.042296
-2.360902 0.182117 0.276799 0.098854 0.067281 0.136187 -0.001569 0.111543 0.070734 -0.166295 0.052205 0.047361 0.042614
-2.348371 0.189614 0.285357 0.102291 0.069092 0.143728 -0.001463 0.112367 0.071196 -0.165331 0.052589 0.047568 0.042935
-2.335840 0.197236 0.294361 0.105880 0.070976 0.151700 -0.001349 0.113184 0.071660 -0.164464 0.052975 0.047776 0.043259
-2.323308 0.205008 0.303798 0.109627 0.072936 0.160087 -0.001226 0.113994 0.072128 -0.163677 0.053365 0.047986 0.043586
-2.310777 0.212949 0.313641 0.113533 0.074975 0.168863 -0.001092 0.114797 0.072599 -0.162956 0.053758 0.048197 0.043915
-2.298246 0.221074 0.323851 0.117602 0.077097 0.177986 -0.000946 0.115593 0.073074 -0.162292 0.054154 0.048410 0.044247
-2.285714 0.229394 0.334367 0.121834 0.079306 0.187396 -0.000788 0.116381 0.073551 -0.161678 0.054553 0.048624 0.044582
-2.273183 0.237918 0.345112 0.126229 0.081605 0.197012 -0.000615 0.117160 0.074032 -0.161109 0.054956 0.048839 0.044920
-2.260652 0.246652 0.355990 0.130786 0.083999 0.206738 -0.000427 0.117931 0.074516 -0.160581 0.055362 0.049056 0.045261
-2.248120 0.255596 0.366887 0.135499 0.086492 0.216458 -0.000220 0.118693 0.075004 -0.160092 0.055771 0.049275 0.045604
-2.235589 0.264752 0.377676 0.140363 0.089087 0.226042 0.000006 0.119446 0.075494 -0.159639 0.056183 0.049494 0.045951
-2.223058 0.274113 0.388218 0.145369 0.091789 0.235349 0.000254 0.120189 0.075988 -0.159222 0.056599 0.049716 0.046301
-2.210526 0.283674 0.398369 0.150504 0.094602 0.244232 0.000528 0.120922 0.076485 -0.158839 0.057018 0.049938 0.046653
-2.197995 0.293422 0.407984 0.155753 0.097530 0.252543 0.000830 0.121645 0.076985 -0.158490 0.057440 0.050163 0.047008
-2.185464 0.303344 0.416926 0.161098 0.100576 0.260141 0.001165 0.122357 0.077488 -0.158175 0.057865 0.050389 0.047367
-2.172932 0.313419 0.425068 0.166515 0.103744 0.266893 0.001537 0.123059 0.077995 -0.157894 0.058294 0.050616 0.047728
-2.160401 0.323626 0.432300 0.171980 0.107037 0.272685 0.001951 0.123749 0.078505 -0.157646 0.058726 0.050845 0.048092
-2.147870 0.333936 0.438536 0.177463 0.110459 0.277425 0.002415 0.124429 0.079018 -0.157432 0.059162 0.051076 0.048459
-2.135338 0.344320 0.443724 0.182931 0.114011 0.281051 0.002935 0.125096 0.079534 -0.157252 0.059601 0.051308 0.048829
-2.122807 0.354741 0.447850 0.188348 0.117695 0.283540 0.003522 0.125753 0.080053 -0.157107 0.060043 0.051542 0.049203
-2.110276 0.365164 0.450945 0.193677 0.121512 0.284913 0.004187 0.126397 0.080575 -0.156997 0.060488 0.051778 0.049579
-2.097744 0.375548 0.453094 0.198878 0.125462 0.285240 0.004945 0.127029 0.081100 -0.156922 0.060937 0.052015 0.049958
-2.085213 0.385851 0.454432 0.203912 0.129543 0.284636 0.005812 0.127649 0.081629 -0.156883 0.061390 0.052254 0.050340
-2.072682 0.396029 0.455137 0.208739 0.133754 0.283261 0.006811 0.128257 0.082160 -0.156881 0.061845 0.052495 0.050725
-2.060150 0.406042 0.455430 0.213320 0.138090 0.281304 0.007971 0.128852 0.082695 -0.156916 0.062304 0.052738 0.051113
-2.047619 0.415845 0.455552 0.217621 0.142544 0.278972 0.009328 0.129435 0.083233 -0.156988 0.062767 0.052982 0.051504
-2.035088 0.425401 0.455759 0.221611 0.147110 0.276472 0.010928 0.130005 0.083773 -0.157098 0.063233 0.053228 0.051898
-2.022556 0.434673 0.456310 0.225263 0.151778 0.274000 0.012837 0.130562 0.084317 -0.157247 0.063702 0.053477 0.052295
-2.010025 0.443628 0.457459 0.228558 0.156534 0.271725 0.015138 0.131107 0.084863 -0.157435 0.064174 0.053727 0.052695
-1.997494 0.452238 0.459456 0.231483 0.161366 0.269780 0.017949 0.131638 0.085413 -0.157662 0.064650 0.053979 0.053098
-1.984962 0.460482 0.462558 0.234033 0.166256 0.268254 0.021438 0.132157 0.085965 -0.157929 0.065129 0.054233 0.053504
-1.972431 0.468343 0.467052 0.236213 0.171183 0.267190 0.025849 0.132663 0.086520 -0.158236 0.065612 0.054489 0.053912
-1.959900 0.475811 0.473298 0.238033 0.176127 0.266582 0.031546 0.133156 0.087078 -0.158584 0.066098 0.054747 0.054324
-1.947368 0.482880 0.481815 0.239514 0.181063 0.266376 0.039105 0.133636 0.087639 -0.158973 0.066588 0.055008 0.054739
-1.934837 0.489549 0.493441 0.240681 0.185965 0.266470 0.049463 0.134103 0.088203 -0.159403 0.067080 0.055270 0.055157
-1.922306 0.495822 0.509658 0.241566 0.190804 0.266725 0.064245 0.134558 0.088769 -0.159875 0.067577 0.055535 0.055577
-1.909774 0.501704 0.533286 0.242204 0.195550 0.266967 0.086441 0.134999 0.089339 -0.160387 0.068076 0.055802 0.056001
-1.897243 0.507202 0.570040 0.242631 0.200174 0.267006 0.121957 0.135428 0.089910 -0.160942 0.068579 0.056071 0.056427
-1.884712 0.512322 0.632177 0.242886 0.204645 0.266646 0.183247 0.135845 0.090485 -0.161538 0.069085 0.056342 0.056856
-1.872180 0.517069 0.745789 0.243001 0.208933 0.265710 0.296580 0.136249 0.091062 -0.162176 0.069595 0.056616 0.057289
-1.859649 0.521444 0.947126 0.243008 0.213010 0.264052 0.498350 0.136640 0.091641 -0.162855 0.070108 0.056892 0.057724
-1.847118 0.525445 1.148937 0.242929 0.216848 0.261579 0.701402 0.137020 0.092223 -0.163575 0.070624 0.057171 0.058161
-1.834586 0.529067 1.079145 0.242783 0.220425 0.258257 0.633690 0.137387 0.092808 -0.164336 0.071144 0.057452 0.058602
-1.822055 0.532298 0.916087 0.242576 0.223722 0.254119 0.473520 0.137742 0.093395 -0.165137 0.071666 0.057736 0.059045
-1.809524 0.535124 0.850266 0.242310 0.226722 0.249258 0.411302 0.138086 0.093984 -0.165978 0.072193 0.058022 0.059492
-1.796992 0.537529 0.886437 0.241976 0.229417 0.243813 0.451650 0.138418 0.094576 -0.166857 0.072722 0.058311 0.059941
-1.784461 0.539494 1.029722 0.241558 0.231802 0.237960 0.599512 0.138738 0.095170 -0.167774 0.073255 0.058603 0.060392
-1.771930 0.541000 1.284472 0.241035 0.233880 0.231887 0.859049 0.139047 0.095766 -0.168728 0.073791 0.058898 0.060847
-1.759398 0.542032 1.497320 0.240382 0.235658 0.225785 1.076705 0.139345 0.096364 -0.169716 0.074330 0.059196 0.061304
-1.746867 0.542578 1.385980 0.239570 0.237150 0.219831 0.970017 0.139632 0.096965 -0.170739 0.074873 0.059496 0.061763
-1.734336 0.542631 1.099432 0.238573 0.238376 0.214183 0.687804 0.139908 0.097567 -0.171794 0.075419 0.059800 0.062226
-1.721805 0.542194 0.874206 0.237368 0.239359 0.208975 0.466465 0.140174 0.098172 -0.172878 0.075968 0.060107 0.062691
-1.709273 0.541277 0.734514 0.235937 0.240124 0.204315 0.330103 0.140429 0.098778 -0.173991 0.076521 0.060417 0.063158
-1.696742 0.539903 0.649936 0.234270 0.240701 0.200287 0.248215 0.140674 0.099387 -0.175129 0.077076 0.060730 0.063628
-1.684211 0.538102 0.597672 0.232367 0.241118 0.196954 0.197936 0.140909 0.099997 -0.176290 0.077635 0.061047 0.064101
-1.671679 0.535915 0.565029 0.230239 0.241403 0.194360 0.166529 0.141135 0.100609 -0.177472 0.078197 0.061367 0.064576
-1.659148 0.533390 0.545220 0.227907 0.241579 0.192534 0.147181 0.141351 0.101223 -0.178671 0.078762 0.061690 0.065053
-1.646617 0.530582 0.534637 0.225402 0.241667 0.191490 0.136266 0.141558 0.101839 -0.179884 0.079331 0.062018 0.065533
-1.634085 0.527547 0.531449 0.222763 0.241682 0.191229 0.131953 0.141755 0.102456 -0.181109 0.079903 0.062349 0.066015
-1.621554 0.524345 0.534954 0.220036 0.241631 0.191742 0.133551 0.141944 0.103075 -0.182342 0.080478 0.062684 0.066499
-1.609023 0.521029 0.545318 0.217273 0.241516 0.193003 0.141250 0.142125 0.103695 -0.183580 0.081056 0.063023 0.066986
-1.596491 0.517650 0.563569 0.214527 0.241331 0.194970 0.156121 0.142296 0.104317 -0.184821 0.081637 0.063366 0.067475
-1.583960 0.514250 0.591801 0.211852 0.241062 0.197583 0.180316 0.142460 0.104940 -0.186063 0.082221 0.063714 0.067966
-1.571429 0.510866 0.633561 0.209300 0.240690 0.200755 0.217472 0.142616 0.105564 -0.187304 0.082809 0.064066 0.068460
-1.558897 0.507522 0.694299 0.206921 0.240190 0.204374 0.273148 0.142764 0.106190 -0.188544 0.083400 0.064423 0.068955
-1.546366 0.504235 0.781022 0.204760 0.239537 0.208293 0.354498 0.142905 0.106816 -0.189784 0.083994 0.064784 0.069453
-1.533835 0.501014 0.898110 0.202857 0.238701 0.212335 0.466082 0.143038 0.107444 -0.191027 0.084591 0.065150 0.069953
-1.521303 0.497860 1.032556 0.201244 0.237657 0.216288 0.595101 0.143165 0.108073 -0.192279 0.085192 0.065521 0.070454
-1.508772 0.494770 1.132550 0.199948 0.236382 0.219917 0.689982 0.143284 0.108703 -0.193547 0.085795 0.065897 0.070958
-1.496241 0.491734 1.133105 0.198988 0.234861 0.222974 0.685986 0.143398 0.109334 -0.194846 0.086402 0.066279 0.071464
-1.483709 0.488738 1.040308 0.198377 0.233086 0.225217 0.589441 0.143504 0.109966 -0.196194 0.087012 0.066666 0.071971
-1.471178 0.485764 0.919678 0.198117 0.231060 0.226432 0.466079 0.143605 0.110598 -0.197616 0.087625 0.067060 0.072481
-1.458647 0.482788 0.815239 0.198205 0.228798 0.226460 0.360087 0.143700 0.111231 -0.199146 0.088242 0.067459 0.072992
-1.446115 0.479778 0.736481 0.198626 0.226325 0.225209 0.281041 0.143788 0.111865 -0.200828 0.088862 0.067864 0.073505
-1.433584 0.476687 0.679052 0.199357 0.223676 0.222675 0.224596 0.143872 0.112500 -0.202718 0.089485 0.068276 0.074020
-1.421053 0.473453 0.636734 0.200362 0.220897 0.218936 0.184455 0.143950 0.113135 -0.204892 0.090112 0.068694 0.074537
-1.408521 0.469989 0.604691 0.201597 0.218039 0.214144 0.155630 0.144023 0.113770 -0.207440 0.090742 0.069120 0.075056
-1.395990 0.466180 0.579685 0.203004 0.215160 0.208504 0.134678 0.144092 0.114406 -0.210482 0.091375 0.069553 0.075576
-1.383459 0.461867 0.559667 0.204515 0.212319 0.202251 0.119313 0.144155 0.115042 -0.214164 0.092012 0.069993 0.076098
-1.370927 0.456848 0.543372 0.206050 0.209578 0.195629 0.108028 0.144215 0.115679 -0.218673 0.092652 0.070441 0.076622
-1.358396 0.450856 0.530035 0.207519 0.206996 0.188867 0.099828 0.144270 0.116315 -0.224244 0.093297 0.070898 0.077147
-1.345865 0.443556 0.519204 0.208827 0.204630 0.182169 0.094054 0.144321 0.116952 -0.231173 0.093944 0.071362 0.077674
-1.333333 0.434522 0.510622 0.209874 0.202531 0.175708 0.090280 0.144368 0.117589 -0.239839 0.094596 0.071836 0.078203
-1.320802 0.423217 0.504167 0.210563 0.200746 0.169620 0.088244 0.144411 0.118226 -0.250729 0.095251 0.072320 0.078733
-1.308271 0.408964 0.499806 0.210805 0.199315 0.164010 0.087809 0.144451 0.118863 -0.264469 0.095910 0.072812 0.079265
-1.295739 0.390908 0.497585 0.210522 0.198272 0.158955 0.088942 0.144488 0.119500 -0.281873 0.096573 0.073315 0.079799
-1.283208 0.367980 0.497624 0.209657 0.197640 0.154509 0.091711 0.144522 0.120136 -0.303976 0.097240 0.073829 0.080335
-1.270677 0.338889 0.500128 0.208179 0.197438 0.150710 0.096280 0.144552 0.120773 -0.332053 0.097912 0.074354 0.080872
-1.258145 0.302257 0.505405 0.206081 0.197671 0.147582 0.102934 0.144580 0.121409 -0.367484 0.098587 0.074890 0.081411
-1.245614 0.257207 0.513901 0.203386 0.198337 0.145143 0.112100 0.144606 0.122044 -0.411166 0.099267 0.075439 0.081952
-1.233083 0.205281 0.526238 0.200144 0.199418 0.143406 0.124383 0.144629 0.122680 -0.461590 0.099952 0.076000 0.082495
-1.220551 0.155558 0.543266 0.196427 0.200884 0.142384 0.140625 0.144650 0.123315 -0.509717 0.100642 0.076575 0.083040
-1.208020 0.134118 0.566120 0.192324 0.202688 0.142089 0.161944 0.144669 0.123949 -0.529512 0.101336 0.077164 0.083587
-1.195489 0.185323 0.596232 0.187936 0.204766 0.142535 0.189758 0.144686 0.124583 -0.476648 0.102035 0.077768 0.084136
-1.182957 0.328122 0.635214 0.183371 0.207031 0.143740 0.225659 0.144701 0.125217 -0.332199 0.102740 0.078388 0.084688
-1.170426 0.504307 0.684388 0.178735 0.209379 0.145723 0.270950 0.144715 0.125849 -0.154371 0.103450 0.079023 0.085242
-1.157895 0.641254 0.743544 0.174127 0.211682 0.148505 0.325398 0.144727 0.126482 -0.015764 0.104166 0.079676 0.085798
-1.145363 0.722299 0.808588 0.169641 0.213797 0.152102 0.384893 0.144739 0.127113 0.067010 0.104888 0.080348 0.086357
-1.132832 0.763401 0.868946 0.165360 0.215566 0.156528 0.438844 0.144749 0.127743 0.109983 0.105616 0.081038 0.086919
-1.120301 0.781710 0.908646 0.161354 0.216830 0.161780 0.471282 0.144758 0.128373 0.130394 0.106351 0.081749 0.087484
-1.107769 0.787977 0.915206 0.157685 0.217436 0.167836 0.469744 0.144767 0.129002 0.139087 0.107092 0.082481 0.088053
-1.095238 0.788004 0.889958 0.154404 0.217249 0.174635 0.435621 0.144775 0.129630 0.141945 0.107841 0.083236 0.088624
-1.082707 0.784792 0.846495 0.151555 0.216171 0.182068 0.382615 0.144782 0.130257 0.142026 0.108597 0.084015 0.089200
-1.070175 0.779900 0.799600 0.149175 0.214147 0.189955 0.325685 0.144790 0.130883 0.140905 0.109361 0.084819 0.089780
-1.057644 0.774171 0.758110 0.147295 0.211175 0.198025 0.273937 0.144797 0.131509 0.139396 0.110133 0.085651 0.090365
-1.045113 0.768105 0.724945 0.145945 0.207306 0.205906 0.230662 0.144804 0.132133 0.137917 0.110913 0.086510 0.090954
-1.032581 0.762041 0.699670 0.145153 0.202643 0.213121 0.195897 0.144811 0.132756 0.136677 0.111703 0.087400 0.091549
-1.020050 0.756244 0.680525 0.144946 0.197327 0.219109 0.168443 0.144818 0.133377 0.135775 0.112502 0.088323 0.092149
-1.007519 0.750951 0.665496 0.145353 0.191525 0.223275 0.146875 0.144826 0.133998 0.135248 0.113311 0.089279 0.092756
-0.994987 0.746377 0.652770 0.146403 0.185418 0.225072 0.129927 0.144835 0.134618 0.135104 0.114131 0.090272 0.093369
-0.982456 0.742721 0.640930 0.148128 0.179183 0.224093 0.116581 0.144844 0.135236 0.135330 0.114962 0.091304 0.093990
-0.969925 0.740162 0.629023 0.150561 0.172989 0.220163 0.106059 0.144854 0.135853 0.135905 0.115805 0.092377 0.094619
-0.957393 0.738853 0.616568 0.153735 0.166983 0.213380 0.097776 0.144865 0.136468 0.136802 0.116661 0.093494 0.095257
