# Energy DOS Partial-DOS
-3.0 0.546492240688 0.0898923581281 0.106523937619 0.112936769139 0.126991557019 0.110147618783
-2.98746867168 0.548182228814 0.0904392934898 0.106648395199 0.11323482773 0.127344350209 0.110515362186
-2.97493734336 0.549879263768 0.0909973999422 0.106771088586 0.11353312228 0.12769476985 0.11088288311
-2.96240601504 0.551584077029 0.0915670615757 0.106892391766 0.113831657416 0.128042795196 0.111250171076
-2.94987468672 0.553297423252 0.0921486774788 0.107012685668 0.114130438067 0.128388406211 0.111617215827
-2.9373433584 0.555020081001 0.0927426624604 0.107132358142 0.114429469473 0.128731583588 0.111984007337
-2.92481203008 0.556752853544 0.0933494478146 0.107251803962 0.114728757195 0.129072308752 0.11235053582
-2.91228070175 0.558496569721 0.093969482127 0.107371424857 0.115028307121 0.129410563877 0.112716791738
-2.89974937343 0.56025208487 0.0946032321288 0.107491629553 0.115328125479 0.129746331898 0.113082765812
-2.88721804511 0.562020281841 0.0952511835995 0.10761283385 0.115628218843 0.130079596521 0.113448449028
-2.87468671679 0.563802072076 0.0959138423212 0.107735460725 0.115928594148 0.130410342232 0.11381383265
-2.86215538847 0.565598396777 0.0965917350895 0.107859940451 0.116229258694 0.130738554314 0.114178908229
-2.84962406015 0.567410228169 0.0972854107833 0.10798671076 0.116530220163 0.131064218853 0.11454366761
-2.83709273183 0.569238570841 0.0979954414972 0.108116217022 0.116831486625 0.131387322751 0.114908102946
-2.82456140351 0.571084463201 0.0987224237413 0.108248912465 0.11713306655 0.131707853739 0.115272206705
-2.81203007519 0.572948979025 0.0994669797127 0.108385258421 0.117434968823 0.132025800387 0.115635971682
-2.79949874687 0.574833229122 0.100229758643 0.108525724609 0.117737202752 0.132341152111 0.115999391007
-2.78696741855 0.57673836311 0.101011438225 0.108670789455 0.11803977808 0.132653899191 0.11636245816
-2.77443609023 0.578665571331 0.101812726132 0.108820940443 0.118342705001 0.132964032777 0.116725166979
-2.7619047619 0.580616086876 0.102634361618 0.108976674515 0.11864599417 0.133271544903 0.117087511669
-2.74937343358 0.58259118777 0.10347711723 0.109138498506 0.118949656718 0.133576428497 0.117449486819
-2.73684210526 0.584592199294 0.104341800611 0.10930692962 0.119253704265 0.13387867739 0.117811087408
-2.72431077694 0.586620496468 0.105229256426 0.109482495956 0.119558148935 0.134178286332 0.118172308819
-2.71177944862 0.588677506702 0.1061403684 0.109665737082 0.119863003368 0.134475250999 0.118533146852
-2.6992481203 0.590764712621 0.107076061483 0.109857204656 0.120168280739 0.134769568007 0.118893597735
-2.68671679198 0.592883655084 0.108037304154 0.110057463099 0.120473994773 0.135061234922 0.119253658136
-2.67418546366 0.5950359364 0.109025110864 0.110267090332 0.120780159755 0.135350250273 0.119613325175
-2.66165413534 0.597223223756 0.110040544633 0.110486678562 0.121086790557 0.135636613564 0.119972596439
-2.64912280702 0.599447252875 0.111084719815 0.110716835133 0.121393902647 0.135920325285 0.120331469995
-2.6365914787 0.601709831913 0.112158805027 0.11095818345 0.12170151211 0.136201386923 0.120689944403
-2.62406015038 0.604012845609 0.113264026271 0.111211363966 0.122009635664 0.136479800981 0.121048018727
-2.61152882206 0.606358259708 0.114401670246 0.111477035242 0.122318290683 0.136755570981 0.121405692555
-2.59899749373 0.608748125678 0.115573087876 0.111755875092 0.122627495214 0.137028701487 0.121762966009
-2.58646616541 0.611184585722 0.116779698047 0.112048581808 0.122937267995 0.137299198112 0.122119839761
-2.57393483709 0.613669878125 0.11802299159 0.112355875475 0.123247628481 0.137567067533 0.122476315046
-2.56140350877 0.616206342943 0.119304535503 0.112678499384 0.123558596862 0.137832317508 0.122832393685
-2.54887218045 0.618796428051 0.120625977445 0.11301722154 0.123870194086 0.13809495689 0.12318807809
-2.53634085213 0.621442695592 0.121989050496 0.113372836285 0.124182441883 0.138354995638 0.12354337129
-2.52380952381 0.624147828819 0.123395578217 0.113746166035 0.124495362787 0.138612444839 0.123898276941
-2.51127819549 0.626914639382 0.124847480012 0.11413806314 0.124808980165 0.138867316719 0.124252799347
-2.49874686717 0.629746075066 0.12634677681 0.114549411879 0.125123318236 0.139119624664 0.124606943477
-2.48621553885 0.632645228006 0.127895597091 0.114981130595 0.125438402105 0.139369383234 0.124960714982
-2.47368421053 0.635615343412 0.129496183244 0.115434173986 0.125754257784 0.139616608185 0.125314120213
-2.46115288221 0.638659828819 0.131150898306 0.11590953556 0.126070912227 0.139861316482 0.125667166244
-2.44862155388 0.641782263882 0.132862233055 0.116408250261 0.126388393352 0.140103526328 0.126019860886
-2.43609022556 0.644986410753 0.134632813491 0.116931397297 0.126706730079 0.140343257173 0.126372212712
-2.42355889724 0.648276225042 0.136465408704 0.117480103159 0.127025952357 0.140580529745 0.126724231077
-2.41102756892 0.651655867388 0.138362939115 0.11805554487 0.127346091198 0.140815366068 0.127075926135
-2.3984962406 0.655129715646 0.140328485111 0.118658953467 0.127667178713 0.141047789485 0.127427308869
-2.38596491228 0.658702377711 0.142365296034 0.119291617741 0.127989248146 0.141277824684 0.127778391106
-2.37343358396 0.662378704956 0.144476799529 0.11995488825 0.128312333908 0.141505497722 0.128129185547
-2.36090225564 0.666163806292 0.146666611197 0.120650181634 0.128636471623 0.141730836053 0.128479705784
-2.34837092732 0.670063062823 0.148938544524 0.12137898525 0.128961698159 0.141953868555 0.128829966334
-2.335839599 0.674082143051 0.151296621006 0.122142862154 0.129288051675 0.142174625559 0.129179982658
-2.32330827068 0.678227018592 0.153745080405 0.122943456456 0.129615571662 0.14239313888 0.129529771189
-2.31077694236 0.682503980298 0.156288391013 0.123782499089 0.129944298985 0.142609441849 0.129879349362
-2.29824561404 0.686919654703 0.158931259777 0.124661814003 0.130274275934 0.142823569347 0.130228735641
-2.28571428571 0.691481020628 0.161678642128 0.125583324841 0.130605546269 0.14303555784 0.130577949549
-2.27318295739 0.696195425766 0.164535751259 0.126549062125 0.130938155271 0.143245445415 0.130927011696
-2.26065162907 0.70107060301 0.167508066592 0.127561170988 0.131272149793 0.14345327182 0.131275943817
-2.24812030075 0.706114686201 0.170601341077 0.128621919508 0.131607578316 0.143659078503 0.131624768797
-2.23558897243 0.711336224944 0.173821606893 0.129733707677 0.131944491003 0.14386290866 0.131973510711
-2.22305764411 0.716744197988 0.177175179038 0.130899077065 0.132282939758 0.144064807271 0.132322194857
-2.21052631579 0.722348024621 0.180668656159 0.132120721225 0.132622978289 0.144264821155 0.132670847793
-2.19799498747 0.728157573342 0.184308917882 0.133401496898 0.132964662171 0.144462999017 0.133019497374
-2.18546365915 0.734183166976 0.188103117695 0.134744436078 0.13330804891 0.1446593915 0.133368172793
-2.17293233083 0.740435583186 0.192058670324 0.136152758991 0.133653198013 0.144854051237 0.13371690462
-2.16040100251 0.746926049163 0.196183232285 0.137629888053 0.134000171061 0.145047032915 0.134065724848
-2.14786967419 0.753666229022 0.200484674102 0.139179462874 0.134349031785 0.145238393329 0.134414666933
-2.13533834586 0.760668202208 0.204971042409 0.140805356368 0.134699846139 0.145428191449 0.134763765843
-2.12280701754 0.767944430895 0.209650509891 0.142511692026 0.135052682387 0.145616488487 0.135113058104
-2.11027568922 0.775507714105 0.214531310689 0.144302862412 0.135407611186 0.145803347967 0.135462581851
-2.0977443609 0.783371125907 0.219621658613 0.146183548941 0.135764705674 0.145988835798 0.135812376881
-2.08521303258 0.791547934763 0.224929645187 0.148158742958 0.136124041563 0.146173020352 0.136162484703
-2.07268170426 0.80005150077 0.230463114222 0.150233768162 0.136485697237 0.146355972551 0.136512948598
-2.06015037594 0.808895147285 0.236229509438 0.152414304375 0.136849753851 0.146537765944 0.136863813676
-2.04761904762 0.818092003221 0.242235691424 0.154706412613 0.137216295438 0.146718476808 0.137215126939
-2.0350877193 0.827654812277 0.24848772026 0.157116561421 0.137585409018 0.146898184237 0.13756693734
-2.02255639098 0.837595705454 0.254990600307 0.15965165433 0.137957184717 0.147076970245 0.137919295855
-2.01002506266 0.847925933687 0.261747984118 0.162319058265 0.138331715881 0.147254919873 0.13827225555
-1.99749373434 0.858655558147 0.268761833363 0.165126632623 0.138709099206 0.147432121301 0.138625871652
-1.98496240602 0.869793097077 0.276032035975 0.168082758635 0.139089434873 0.147608665965 0.138980201628
-1.97243107769 0.881345129893 0.283555980793 0.171196368478 0.139472826679 0.147784648683 0.13933530526
-1.95989974937 0.893315861841 0.291328093722 0.174476973418 0.139859382186 0.147960167783 0.139691244732
-1.94736842105 0.905706655929 0.299339343066 0.177934690033 0.140249212871 0.148135325246 0.140048084713
-1.93483709273 0.918515543105 0.307576726249 0.181580263272 0.140642434284 0.148310226851 0.14040589245
-1.92230576441 0.931736726752 0.316022755607 0.185425084747 0.141039166216 0.148484982324 0.140764737858
-1.90977443609 0.945360103402 0.3246549672 0.1894812042 0.141439532868 0.148659705508 0.141124693626
-1.89724310777 0.959370827825 0.3334454834 0.193761331541 0.141843663039 0.14883451453 0.141485835314
-1.88471177945 0.973748956883 0.342360666928 0.198278826191 0.142251690314 0.149009531985 0.141848241465
-1.87218045113 0.988469212108 0.351360910355 0.203047669648 0.142663753262 0.149184885124 0.142211993719
-1.85964912281 1.00350090498 0.360400610085 0.208082416251 0.143079995652 0.14936070606 0.14257717693
-1.84711779449 1.01880807034 0.369428376395 0.213398116005 0.143500566669 0.149537131982 0.142943879291
-1.83458646617 1.03434985118 0.378387530152 0.219010202041 0.143925621146 0.149714305376 0.143312192469
-1.82205513784 1.05008117077 0.387216931084 0.22493433387 0.144355319809 0.149892374273 0.143682211736
-1.80952380952 1.06595371511 0.395852170909 0.231186186059 0.14478982953 0.150071492494 0.144054036119
-1.7969924812 1.08191722851 0.404227146079 0.23778117036 0.145229323596 0.150251819923 0.144427768548
-1.78446115288 1.09792109753 0.412275998853 0.244734077879 0.145673981992 0.150433522788 0.144803516018
-1.77192982456 1.11391616357 0.419935381506 0.252058626651 0.146123991695 0.150616773963 0.145181389752
-1.75939849624 1.12985666262 0.427146957558 0.25976689941 0.146579546986 0.150801753286 0.145561505382
-1.74686716792 1.1457021453 0.433860007743 0.267868656754 0.147040849781 0.150988647896 0.145943983127
-1.7343358396 1.16141918444 0.440033961036 0.276370512848 0.147508109969 0.151177652594 0.146328947995
-1.72180451128 1.17698263928 0.445640628256 0.285274965048 0.14798154578 0.151368970217 0.146716529981
-1.70927318296 1.19237622246 0.450665885888 0.29457927608 0.148461384164 0.151562812045 0.147106864284
-1.69674185464 1.20759211963 0.455110550051 0.304274218619 0.148947861196 0.151759398231 0.147500091537
-1.68421052632 1.22262945058 0.458990203801 0.314342707998 0.149441222496 0.151958958248 0.14789635804
-1.67167919799 1.23749144176 0.462333800811 0.324758369881 0.149941723674 0.152161731382 0.148295816014
-1.65914786967 1.25218130315 0.465180965258 0.335484115988 0.150449630806 0.152367967235 0.148698623866
-1.64661654135 1.26669696021 0.467578035219 0.346470831314 0.150965220922 0.152577926282 0.149104946469
-1.63408521303 1.2810249703 0.469573043217 0.357656308651 0.151488782535 0.152791880443 0.149514955454
-1.62155388471 1.29513413371 0.47120997751 0.368964596775 0.152020616187 0.15301011371 0.149928829525
-1.60902255639 1.30896947112 0.472522806033 0.380305952472 0.152561035031 0.153232922799 0.150346754784
-1.59649122807 1.32244736409 0.473529858361 0.391577597349 0.153110365445 0.153460617861 0.150768925078
-1.58395989975 1.33545272294 0.474229238131 0.402665471538 0.153668947681 0.153693523223 0.151195542367
-1.57142857143 1.34783903994 0.47459596657 0.413447141521 0.154237136543 0.153931978196 0.151626817108
-1.55889724311 1.35943208144 0.47458152 0.42379595273 0.154815302114 0.154176337924 0.152062968668
-1.54636591479 1.37003774207 0.474116296681 0.433586414823 0.155403830512 0.154426974297 0.152504225754
-1.53383458647 1.37945420047 0.473115306051 0.442700665924 0.1560031247 0.154684276925 0.152950826872
-1.52130325815 1.38748796491 0.471487001783 0.4510356828 0.156613605332 0.154948654184 0.153403020813
-1.50877192982 1.39397270482 0.469144695224 0.458510696457 0.157235711651 0.155220534327 0.153861067162
-1.4962406015 1.39878901923 0.466019452336 0.465074060926 0.157869902442 0.155500366679 0.154325236848
-1.48370927318 1.40188265536 0.462072912698 0.470708649993 0.158516657032 0.155788622919 0.154795812716
-1.47117794486 1.40327836783 0.457308221731 0.47543478116 0.159176476349 0.156085798447 0.155273090139
-1.45864661654 1.40308678851 0.451777365232 0.479309747703 0.159849884048 0.156392413856 0.155757377668
-1.44611528822 1.40150244047 0.445583684162 0.482423314383 0.160537427691 0.156709016513 0.156248997717
-1.4335839599 1.39879228604 0.438879147879 0.484888988617 0.161239680001 0.157036182248 0.156748287297
-1.42105263158 1.39527568779 0.431856879307 0.486831452323 0.161957240189 0.157374517179 0.157255598789
-1.40852130326 1.39129803507 0.424740208384 0.488371130896 0.162690735351 0.157724659669 0.157771300768
-1.39598997494 1.38720124841 0.417769975427 0.48960738972 0.16344082195 0.158087282434 0.158295778879
-1.38345864662 1.38329477316 0.411191826106 0.490602228099 0.164208187378 0.158463094809 0.158829436769
-1.3709273183 1.37983055139 0.405244882464 0.49136657505 0.16499355161 0.15885284519 0.15937269708
-1.35839598997 1.37698496734 0.400152584329 0.491851387889 0.165797668953 0.159257323674 0.159926002498
-1.34586466165 1.37485004073 0.396115844174 0.491945684904 0.166621329882 0.159677364894 0.160489816881
-1.33333333333 1.37343522497 0.393308083886 0.491483300549 0.167465362995 0.160113851089 0.161064626452
-1.32080200501 1.37267995119 0.391871299018 0.490259358622 0.168330637063 0.160567715417 0.161650941074
-1.30827067669 1.37247540626 0.391912042465 0.488056059455 0.169218063192 0.161039945537 0.162249295607
-1.29573934837 1.37269196138 0.393496122841 0.484675402593 0.170128597113 0.161531587478 0.162860251359
-1.28320802005 1.37320655306 0.396640866843 0.479974297183 0.171063241575 0.162043749833 0.163484397629
-1.27067669173 1.37392293779 0.401304031419 0.473895895831 0.172023048882 0.162577608296 0.164122353359
-1.25814536341 1.37477805284 0.407368962664 0.466490787173 0.173009123538 0.163134410581 0.164774768889
-1.24561403509 1.37573037029 0.414626536999 0.457923398651 0.174022625039 0.163715481754 0.165442327843
-1.23308270677 1.37673101076 0.422755958562 0.44846230226 0.175064770787 0.164322230014 0.166125749135
-1.22055137845 1.37768445193 0.431308695874 0.438456974819 0.176136839142 0.164956152975 0.166825789116
-1.20802005013 1.37841124553 0.439702462032 0.428306522547 0.1772401726 0.165618844482 0.167543243869
-1.1954887218 1.37862836504 0.447234285653 0.418426944593 0.178376181111 0.166312002018 0.168278951664
-1.18295739348 1.37796184646 0.453121693815 0.409222576804 0.179546345502 0.167037434758 0.169033795579
-1.17042606516 1.37599985128 0.456576735365 0.40106511624 0.180752221037 0.167797072324 0.169808706313
-1.15789473684 1.37238203343 0.456907880769 0.394281072108 0.181995441062 0.168592974308 0.170604665186
-1.14536340852 1.36690580646 0.453631631267 0.389146406451 0.183277720747 0.169427340636 0.171422707354
-1.1328320802 1.35961806293 0.446564897179 0.385885856767 0.18460086089 0.170302522842 0.172263925255
-1.12030075188 1.35085971616 0.435868541449 0.384673914331 0.185966751757 0.17122103634 0.173129472286
-1.10776942356 1.34124358855 0.422025661743 0.385634409369 0.187377376917 0.172185573777 0.174020566745
-1.09523809524 1.33156857768 0.405760372364 0.388835872663 0.188834817039 0.173199019559 0.174938496054
-1.08270676692 1.32269313155 0.387922607311 0.394280183753 0.190341253576 0.174264465647 0.175884621266
-1.0701754386 1.3153989978 0.369371844391 0.401882570516 0.191898972271 0.175385228728 0.176860381896
-1.05764411028 1.3102707357 0.350886065879 0.411442133481 0.193510366399 0.176564868858 0.177867301086
-1.04511278195 1.30760452621 0.333108076663 0.422604309126 0.195177939631 0.177807209679 0.178906991115
-1.03258145363 1.30735033143 0.316527778193 0.434820725236 0.196904308384 0.17911636032 0.179981159298
-1.02005012531 1.3090896168 0.301491045741 0.447318014217 0.198692203506 0.180496739061 0.181091614273
-1.00751879699 1.31205598577 0.288223889934 0.459094253203 0.200544471086 0.181953098845 0.182240272702
-0.994987468672 1.31521236906 0.276862451749 0.468966124045 0.20246407217 0.183490554688 0.183429166413
-0.982456140351 1.31739694453 0.267482629707 0.475685170744 0.204454081087 0.185114613011 0.184660449985
-0.96992481203 1.31753300461 0.260126164022 0.478121546863 0.206517682069 0.186831202858 0.185936408802
-0.957393483709 1.31486648745 0.254822156932 0.475479990302 0.208658163749 0.188646708897 0.187259467573
-0.944862155388 1.30916471559 0.251604254321 0.46748134483 0.21087891109 0.190568006008 0.188632199336
-0.932330827068 1.30080617363 0.250524262847 0.454438686585 0.213183394181 0.192602495101 0.190057334919
-0.919799498747 1.2907272118 0.251663065038 0.437193080974 0.215575153263 0.194758139658 0.191537772863
-0.907268170426 1.28025054623 0.255139484847 0.416933190147 0.218057779255 0.197043502215 0.193076589765
-0.894736842105 1.27086488273 0.261117309215 0.394967853953 0.220634888897 0.199467779681 0.194677050988
-0.882205513784 1.26402915089 0.269809943303 0.372525656398 0.223310093562 0.202040835956 0.196342621672
-0.869674185464 1.26104437084 0.28148101355 0.350626189001 0.226086960601 0.204773229751 0.19807697794
-0.857142857143 1.26299638793 0.296437359648 0.330029809379 0.228968966004 0.20767623475 0.19988401815
-0.844611528822 1.27074429575 0.315007899554 0.311247236858 0.231959436988 0.210761848338 0.201767874017
-0.832080200501 1.28491727527 0.337497475812 0.294582611208 0.235061483053 0.214042783873 0.203732921323
-0.81954887218 1.30588123152 0.364099199321 0.280187888405 0.238277913912 0.217532439964 0.205783789921
-0.80701754386 1.33364021616 0.394744048362 0.268114814202 0.241611142701 0.221244838319 0.207925372579
-0.794486215539 1.36764775392 0.428869118513 0.258358211047 0.245063072864 0.22519451936 0.210162832133
-0.781954887218 1.40653267203 0.465110493146 0.250889223318 0.248634967275 0.229396382025 0.212501606264
-0.769423558897 1.44781443837 0.500994608977 0.245679671129 0.252327298373 0.233865450876 0.214947409018
-0.756892230576 1.48780223198 0.532820322167 0.242719553224 0.256139578592 0.238616549997 0.217506228
-0.744360902256 1.52197676433 0.556028671256 0.242029746867 0.260070171018 0.243663859309 0.220184315884
-0.731829573935 1.5460630099 0.566266877132 0.243671551681 0.2641160812 0.249020325308 0.222988174582
-0.719298245614 1.55755218126 0.560903878692 0.247754144554 0.2682727324 0.254696895585 0.225924530026
-0.706766917293 1.55685860449 0.540182734863 0.254440300366 0.272533728271 0.26070154591 0.229000295083
-0.694235588972 1.54728840373 0.507187406009 0.263949798981 0.276890609171 0.267038071955 0.232222517617
-0.681704260652 1.53381433493 0.466620213525 0.276558573183 0.28133261089 0.27370462724 0.235598310093
-0.669172932331 1.5214896987 0.423226971192 0.292589525734 0.285846437565 0.280692007691 0.239134756521
-0.65664160401 1.51434201228 0.380717804761 0.312387637361 0.290416063808 0.287981714553 0.242838791796
-0.644110275689 1.51498425579 0.341433574127 0.336267175378 0.295022584351 0.295543874159 0.246717047777
-0.631578947368 1.5246929319 0.306525104482 0.364412879216 0.299644132606 0.303335155785 0.25077565981
-0.619047619048 1.5436034092 0.276317979994 0.396712606958 0.304255892007 0.311296903448 0.255020026795
-0.606516290727 1.57079888706 0.250656328947 0.432504042466 0.308830225552 0.319353772458 0.259454517637
