# [1] Energy
# [2] Total DOS of spin up
# [3] Total DOS of spin down
# [4] PDOS of shell0,spin up,band0
# [5] PDOS of shell0,spin down,band0
-6.000000 0.024279 0.024279 0.024279 0.024279
-5.970000 0.024366 0.024366 0.024366 0.024366
-5.940000 0.024457 0.024457 0.024457 0.024457
-5.910000 0.024549 0.024549 0.024549 0.024549
-5.880000 0.024645 0.024645 0.024645 0.024645
-5.850000 0.024743 0.024743 0.024743 0.024743
-5.820000 0.024844 0.024844 0.024844 0.024844
-5.790000 0.024949 0.024949 0.024949 0.024949
-5.760000 0.025056 0.025056 0.025056 0.025056
-5.730000 0.025168 0.025168 0.025168 0.025168
-5.700000 0.025282 0.025282 0.025282 0.025282
-5.670000 0.025401 0.025401 0.025401 0.025401
-5.640000 0.025523 0.025523 0.025523 0.025523
-5.610000 0.025649 0.025649 0.025649 0.025649
-5.580000 0.025779 0.025779 0.025779 0.025779
-5.550000 0.025913 0.025913 0.025913 0.025913
-5.520000 0.026051 0.026051 0.026051 0.026051
-5.490000 0.026194 0.026194 0.026194 0.026194
-5.460000 0.026342 0.026342 0.026342 0.026342
-5.430000 0.026494 0.026494 0.026494 0.026494
-5.400000 0.026650 0.026650 0.026650 0.026650
-5.370000 0.026812 0.026812 0.026812 0.026812
-5.340000 0.026978 0.026978 0.026978 0.026978
-5.310000 0.027150 0.027150 0.027150 0.027150
-5.280000 0.027327 0.027327 0.027327 0.027327
-5.250000 0.027509 0.027509 0.027509 0.027509
-5.220000 0.027697 0.027697 0.027697 0.027697
-5.190000 0.027890 0.027890 0.027890 0.027890
-5.160000 0.028089 0.028089 0.028089 0.028089
-5.130000 0.028294 0.028294 0.028294 0.028294
-5.100000 0.028505 0.028505 0.028505 0.028505
-5.070000 0.028722 0.028722 0.028722 0.028722
-5.040000 0.028945 0.028945 0.028945 0.028945
-5.010000 0.029175 0.029175 0.029175 0.029175
-4.980000 0.029411 0.029411 0.029411 0.029411
-4.950000 0.029654 0.029654 0.029654 0.029654
-4.920000 0.029904 0.029904 0.029904 0.029904
-4.890000 0.030161 0.030161 0.030161 0.030161
-4.860000 0.030426 0.030426 0.030426 0.030426
-4.830000 0.030697 0.030697 0.030697 0.030697
-4.800000 0.030976 0.030976 0.030976 0.030976
-4.770000 0.031264 0.031264 0.031264 0.031264
-4.740000 0.031558 0.031558 0.031558 0.031558
-4.710000 0.031862 0.031862 0.031862 0.031862
-4.680000 0.032173 0.032173 0.032173 0.032173
-4.650000 0.032493 0.032493 0.032493 0.032493
-4.620000 0.032821 0.032821 0.032821 0.032821
-4.590000 0.033159 0.033159 0.033159 0.033159
-4.560000 0.033506 0.033506 0.033506 0.033506
-4.530000 0.033862 0.033862 0.033862 0.033862
-4.500000 0.034227 0.034227 0.034227 0.034227
-4.470000 0.034602 0.034602 0.034602 0.034602
-4.440000 0.034987 0.034987 0.034987 0.034987
-4.410000 0.035383 0.035383 0.035383 0.035383
-4.380000 0.035788 0.035788 0.035788 0.035788
-4.350000 0.036205 0.036205 0.036205 0.036205
-4.320000 0.036632 0.036632 0.036632 0.036632
-4.290000 0.037070 0.037070 0.037070 0.037070
-4.260000 0.037519 0.037519 0.037519 0.037519
-4.230000 0.037980 0.037980 0.037980 0.037980
-4.200000 0.038453 0.038453 0.038453 0.038453
-4.170000 0.038937 0.038937 0.038937 0.038937
-4.140000 0.039433 0.039433 0.039433 0.039433
-4.110000 0.039942 0.039942 0.039942 0.039942
-4.080000 0.040463 0.040463 0.040463 0.040463
-4.050000 0.040997 0.040997 0.040997 0.040997
-4.020000 0.041543 0.041543 0.041543 0.041543
-3.990000 0.042103 0.042103 0.042103 0.042103
-3.960000 0.042675 0.042675 0.042675 0.042675
-3.930000 0.043260 0.043260 0.043260 0.043260
-3.900000 0.043859 0.043859 0.043859 0.043859
-3.870000 0.044471 0.044471 0.044471 0.044471
-3.840000 0.045097 0.045097 0.045097 0.045097
-3.810000 0.045736 0.045736 0.045736 0.045736
-3.780000 0.046389 0.046389 0.046389 0.046389
-3.750000 0.047055 0.047055 0.047055 0.047055
-3.720000 0.047735 0.047735 0.047735 0.047735
-3.690000 0.048428 0.048428 0.048428 0.048428
-3.660000 0.049134 0.049134 0.049134 0.049134
-3.630000 0.049854 0.049854 0.049854 0.049854
-3.600000 0.050587 0.050587 0.050587 0.050587
-3.570000 0.051333 0.051333 0.051333 0.051333
-3.540000 0.052091 0.052091 0.052091 0.052091
-3.510000 0.052862 0.052862 0.052862 0.052862
-3.480000 0.053644 0.053644 0.053644 0.053644
-3.450000 0.054438 0.054438 0.054438 0.054438
-3.420000 0.055244 0.055244 0.055244 0.055244
-3.390000 0.056059 0.056059 0.056059 0.056059
-3.360000 0.056885 0.056885 0.056885 0.056885
-3.330000 0.057719 0.057719 0.057719 0.057719
-3.300000 0.058562 0.058562 0.058562 0.058562
-3.270000 0.059411 0.059411 0.059411 0.059411
-3.240000 0.060268 0.060268 0.060268 0.060268
-3.210000 0.061129 0.061129 0.061129 0.061129
-3.180000 0.061994 0.061994 0.061994 0.061994
-3.150000 0.062861 0.062861 0.062861 0.062861
-3.120000 0.063730 0.063730 0.063730 0.063730
-3.090000 0.064598 0.064598 0.064598 0.064598
-3.060000 0.065464 0.065464 0.065464 0.065464
-3.030000 0.066327 0.066327 0.066327 0.066327
-3.000000 0.067185 0.067185 0.067185 0.067185
-2.970000 0.068036 0.068036 0.068036 0.068036
-2.940000 0.068879 0.068879 0.068879 0.068879
-2.910000 0.069713 0.069713 0.069713 0.069713
-2.880000 0.070536 0.070536 0.070536 0.070536
-2.850000 0.071348 0.071348 0.071348 0.071348
-2.820000 0.072146 0.072146 0.072146 0.072146
-2.790000 0.072930 0.072930 0.072930 0.072930
-2.760000 0.073700 0.073700 0.073700 0.073700
-2.730000 0.074454 0.074454 0.074454 0.074454
-2.700000 0.075193 0.075193 0.075193 0.075193
-2.670000 0.075915 0.075915 0.075915 0.075915
-2.640000 0.076620 0.076620 0.076620 0.076620
-2.610000 0.077306 0.077306 0.077306 0.077306
-2.580000 0.077975 0.077975 0.077975 0.077975
-2.550000 0.078623 0.078623 0.078623 0.078623
-2.520000 0.079250 0.079250 0.079250 0.079250
-2.490000 0.079855 0.079855 0.079855 0.079855
-2.460000 0.080435 0.080435 0.080435 0.080435
-2.430000 0.080989 0.080989 0.080989 0.080989
-2.400000 0.081515 0.081515 0.081515 0.081515
-2.370000 0.082010 0.082010 0.082010 0.082010
-2.340000 0.082473 0.082473 0.082473 0.082473
-2.310000 0.082904 0.082904 0.082904 0.082904
-2.280000 0.083301 0.083301 0.083301 0.083301
-2.250000 0.083667 0.083667 0.083667 0.083667
-2.220000 0.084003 0.084003 0.084003 0.084003
-2.190000 0.084316 0.084316 0.084316 0.084316
-2.160000 0.084612 0.084612 0.084612 0.084612
-2.130000 0.084899 0.084899 0.084899 0.084899
-2.100000 0.085190 0.085190 0.085190 0.085190
-2.070000 0.085499 0.085499 0.085499 0.085499
-2.040000 0.085842 0.085842 0.085842 0.085842
-2.010000 0.086236 0.086236 0.086236 0.086236
-1.980000 0.086700 0.086700 0.086700 0.086700
-1.950000 0.087253 0.087253 0.087253 0.087253
-1.920000 0.087916 0.087916 0.087916 0.087916
-1.890000 0.088708 0.088708 0.088708 0.088708
-1.860000 0.089644 0.089644 0.089644 0.089644
-1.830000 0.090740 0.090740 0.090740 0.090740
-1.800000 0.092006 0.092006 0.092006 0.092006
-1.770000 0.093447 0.093447 0.093447 0.093447
-1.740000 0.095062 0.095062 0.095062 0.095062
-1.710000 0.096840 0.096840 0.096840 0.096840
-1.680000 0.098764 0.098764 0.098764 0.098764
-1.650000 0.100803 0.100803 0.100803 0.100803
-1.620000 0.102919 0.102919 0.102919 0.102919
-1.590000 0.105067 0.105067 0.105067 0.105067
-1.560000 0.107197 0.107197 0.107197 0.107197
-1.530000 0.109265 0.109265 0.109265 0.109265
-1.500000 0.111242 0.111242 0.111242 0.111242
-1.470000 0.113121 0.113121 0.113121 0.113121
-1.440000 0.114932 0.114932 0.114932 0.114932
-1.410000 0.116745 0.116745 0.116745 0.116745
-1.380000 0.118668 0.118668 0.118668 0.118668
-1.350000 0.120845 0.120845 0.120845 0.120845
-1.320000 0.123441 0.123441 0.123441 0.123441
-1.290000 0.126625 0.126625 0.126625 0.126625
-1.260000 0.130544 0.130544 0.130544 0.130544
-1.230000 0.135301 0.135301 0.135301 0.135301
-1.200000 0.140908 0.140908 0.140908 0.140908
-1.170000 0.147239 0.147239 0.147239 0.147239
-1.140000 0.153967 0.153967 0.153967 0.153967
-1.110000 0.160497 0.160497 0.160497 0.160497
-1.080000 0.165954 0.165954 0.165954 0.165954
-1.050000 0.169268 0.169268 0.169268 0.169268
-1.020000 0.169417 0.169417 0.169417 0.169417
-0.990000 0.165786 0.165786 0.165786 0.165786
-0.960000 0.158461 0.158461 0.158461 0.158461
-0.930000 0.148255 0.148255 0.148255 0.148255
-0.900000 0.136428 0.136428 0.136428 0.136428
-0.870000 0.124278 0.124278 0.124278 0.124278
-0.840000 0.112838 0.112838 0.112838 0.112838
-0.810000 0.102771 0.102771 0.102771 0.102771
-0.780000 0.094418 0.094418 0.094418 0.094418
-0.750000 0.087906 0.087906 0.087906 0.087906
-0.720000 0.083262 0.083262 0.083262 0.083262
-0.690000 0.080497 0.080497 0.080497 0.080497
-0.660000 0.079672 0.079672 0.079672 0.079672
-0.630000 0.080961 0.080961 0.080961 0.080961
-0.600000 0.084700 0.084700 0.084700 0.084700
-0.570000 0.091453 0.091453 0.091453 0.091453
-0.540000 0.102039 0.102039 0.102039 0.102039
-0.510000 0.117376 0.117376 0.117376 0.117376
-0.480000 0.137659 0.137659 0.137659 0.137659
-0.450000 0.160051 0.160051 0.160051 0.160051
-0.420000 0.175792 0.175792 0.175792 0.175792
-0.390000 0.174411 0.174411 0.174411 0.174411
-0.360000 0.156986 0.156986 0.156986 0.156986
-0.330000 0.135594 0.135594 0.135594 0.135594
-0.300000 0.119404 0.119404 0.119404 0.119404
-0.270000 0.111097 0.111097 0.111097 0.111097
-0.240000 0.110657 0.110657 0.110657 0.110657
-0.210000 0.118138 0.118138 0.118138 0.118138
-0.180000 0.134818 0.134818 0.134818 0.134818
-0.150000 0.163995 0.163995 0.163995 0.163995
-0.120000 0.212098 0.212098 0.212098 0.212098
-0.090000 0.289877 0.289877 0.289877 0.289877
-0.060000 0.409237 0.409237 0.409237 0.409237
-0.030000 0.556920 0.556920 0.556920 0.556920
0.000000 0.638805 0.638805 0.638805 0.638805
0.030000 0.563380 0.563380 0.563380 0.563380
0.060000 0.415116 0.415116 0.415116 0.415116
0.090000 0.292986 0.292986 0.292986 0.292986
0.120000 0.213156 0.213156 0.213156 0.213156
0.150000 0.163868 0.163868 0.163868 0.163868
0.180000 0.134044 0.134044 0.134044 0.134044
0.210000 0.117018 0.117018 0.117018 0.117018
0.240000 0.109387 0.109387 0.109387 0.109387
0.270000 0.109862 0.109862 0.109862 0.109862
0.300000 0.118482 0.118482 0.118482 0.118482
0.330000 0.135422 0.135422 0.135422 0.135422
0.360000 0.157965 0.157965 0.157965 0.157965
0.390000 0.176126 0.176126 0.176126 0.176126
0.420000 0.176757 0.176757 0.176757 0.176757
0.450000 0.159446 0.159446 0.159446 0.159446
0.480000 0.136028 0.136028 0.136028 0.136028
0.510000 0.115492 0.115492 0.115492 0.115492
0.540000 0.100340 0.100340 0.100340 0.100340
0.570000 0.090112 0.090112 0.090112 0.090112
0.600000 0.083773 0.083773 0.083773 0.083773
0.630000 0.080468 0.080468 0.080468 0.080468
0.660000 0.079630 0.079630 0.079630 0.079630
0.690000 0.080927 0.080927 0.080927 0.080927
0.720000 0.084193 0.084193 0.084193 0.084193
0.750000 0.089361 0.089361 0.089361 0.089361
0.780000 0.096394 0.096394 0.096394 0.096394
0.810000 0.105214 0.105214 0.105214 0.105214
0.840000 0.115598 0.115598 0.115598 0.115598
0.870000 0.127076 0.127076 0.127076 0.127076
0.900000 0.138841 0.138841 0.138841 0.138841
0.930000 0.149779 0.149779 0.149779 0.149779
0.960000 0.158645 0.158645 0.158645 0.158645
0.990000 0.164419 0.164419 0.164419 0.164419
1.020000 0.166633 0.166633 0.166633 0.166633
1.050000 0.165509 0.165509 0.165509 0.165509
1.080000 0.161799 0.161799 0.161799 0.161799
1.110000 0.156478 0.156478 0.156478 0.156478
1.140000 0.150456 0.150456 0.150456 0.150456
1.170000 0.144423 0.144423 0.144423 0.144423
1.200000 0.138820 0.138820 0.138820 0.138820
1.230000 0.133869 0.133869 0.133869 0.133869
1.260000 0.129639 0.129639 0.129639 0.129639
1.290000 0.126092 0.126092 0.126092 0.126092
1.320000 0.123131 0.123131 0.123131 0.123131
1.350000 0.120629 0.120629 0.120629 0.120629
1.380000 0.118454 0.118454 0.118454 0.118454
1.410000 0.116484 0.116484 0.116484 0.116484
1.440000 0.114619 0.114619 0.114619 0.114619
1.470000 0.112786 0.112786 0.112786 0.112786
1.500000 0.110940 0.110940 0.110940 0.110940
1.530000 0.109065 0.109065 0.109065 0.109065
1.560000 0.107162 0.107162 0.107162 0.107162
1.590000 0.105251 0.105251 0.105251 0.105251
1.620000 0.103357 0.103357 0.103357 0.103357
1.650000 0.101506 0.101506 0.101506 0.101506
1.680000 0.099727 0.099727 0.099727 0.099727
1.710000 0.098041 0.098041 0.098041 0.098041
1.740000 0.096463 0.096463 0.096463 0.096463
1.770000 0.095007 0.095007 0.095007 0.095007
1.800000 0.093676 0.093676 0.093676 0.093676
1.830000 0.092472 0.092472 0.092472 0.092472
1.860000 0.091391 0.091391 0.091391 0.091391
1.890000 0.090428 0.090428 0.090428 0.090428
1.920000 0.089574 0.089574 0.089574 0.089574
1.950000 0.088819 0.088819 0.088819 0.088819
1.980000 0.088151 0.088151 0.088151 0.088151
2.010000 0.087560 0.087560 0.087560 0.087560
2.040000 0.087032 0.087032 0.087032 0.087032
2.070000 0.086558 0.086558 0.086558 0.086558
2.100000 0.086126 0.086126 0.086126 0.086126
2.130000 0.085726 0.085726 0.085726 0.085726
2.160000 0.085348 0.085348 0.085348 0.085348
2.190000 0.084985 0.084985 0.084985 0.084985
2.220000 0.084628 0.084628 0.084628 0.084628
2.250000 0.084273 0.084273 0.084273 0.084273
2.280000 0.083914 0.083914 0.083914 0.083914
2.310000 0.083547 0.083547 0.083547 0.083547
2.340000 0.083168 0.083168 0.083168 0.083168
2.370000 0.082777 0.082777 0.082777 0.082777
2.400000 0.082370 0.082370 0.082370 0.082370
2.430000 0.081948 0.081948 0.081948 0.081948
2.460000 0.081509 0.081509 0.081509 0.081509
2.490000 0.081055 0.081055 0.081055 0.081055
2.520000 0.080585 0.080585 0.080585 0.080585
2.550000 0.080099 0.080099 0.080099 0.080099
2.580000 0.079598 0.079598 0.079598 0.079598
2.610000 0.079083 0.079083 0.079083 0.079083
2.640000 0.078554 0.078554 0.078554 0.078554
2.670000 0.078013 0.078013 0.078013 0.078013
2.700000 0.077459 0.077459 0.077459 0.077459
2.730000 0.076892 0.076892 0.076892 0.076892
2.760000 0.076314 0.076314 0.076314 0.076314
2.790000 0.075724 0.075724 0.075724 0.075724
2.820000 0.075123 0.075123 0.075123 0.075123
2.850000 0.074511 0.074511 0.074511 0.074511
2.880000 0.073887 0.073887 0.073887 0.073887
2.910000 0.073253 0.073253 0.073253 0.073253
2.940000 0.072607 0.072607 0.072607 0.072607
2.970000 0.071951 0.071951 0.071951 0.071951
3.000000 0.071283 0.071283 0.071283 0.071283
3.030000 0.070605 0.070605 0.070605 0.070605
3.060000 0.069915 0.069915 0.069915 0.069915
3.090000 0.069216 0.069216 0.069216 0.069216
3.120000 0.068506 0.068506 0.068506 0.068506
3.150000 0.067787 0.067787 0.067787 0.067787
3.180000 0.067058 0.067058 0.067058 0.067058
3.210000 0.066320 0.066320 0.066320 0.066320
3.240000 0.065574 0.065574 0.065574 0.065574
3.270000 0.064821 0.064821 0.064821 0.064821
3.300000 0.064060 0.064060 0.064060 0.064060
3.330000 0.063293 0.063293 0.063293 0.063293
3.360000 0.062520 0.062520 0.062520 0.062520
3.390000 0.061742 0.061742 0.061742 0.061742
3.420000 0.060960 0.060960 0.060960 0.060960
3.450000 0.060175 0.060175 0.060175 0.060175
3.480000 0.059387 0.059387 0.059387 0.059387
3.510000 0.058598 0.058598 0.058598 0.058598
3.540000 0.057807 0.057807 0.057807 0.057807
3.570000 0.057016 0.057016 0.057016 0.057016
3.600000 0.056225 0.056225 0.056225 0.056225
3.630000 0.055436 0.055436 0.055436 0.055436
3.660000 0.054648 0.054648 0.054648 0.054648
3.690000 0.053862 0.053862 0.053862 0.053862
3.720000 0.053079 0.053079 0.053079 0.053079
3.750000 0.052299 0.052299 0.052299 0.052299
3.780000 0.051523 0.051523 0.051523 0.051523
3.810000 0.050752 0.050752 0.050752 0.050752
3.840000 0.049985 0.049985 0.049985 0.049985
3.870000 0.049223 0.049223 0.049223 0.049223
3.900000 0.048467 0.048467 0.048467 0.048467
3.930000 0.047717 0.047717 0.047717 0.047717
3.960000 0.046972 0.046972 0.046972 0.046972
3.990000 0.046235 0.046235 0.046235 0.046235
4.020000 0.045504 0.045504 0.045504 0.045504
4.050000 0.044780 0.044780 0.044780 0.044780
4.080000 0.044063 0.044063 0.044063 0.044063
4.110000 0.043354 0.043354 0.043354 0.043354
4.140000 0.042653 0.042653 0.042653 0.042653
4.170000 0.041960 0.041960 0.041960 0.041960
4.200000 0.041275 0.041275 0.041275 0.041275
4.230000 0.040599 0.040599 0.040599 0.040599
4.260000 0.039931 0.039931 0.039931 0.039931
4.290000 0.039272 0.039272 0.039272 0.039272
4.320000 0.038621 0.038621 0.038621 0.038621
4.350000 0.037980 0.037980 0.037980 0.037980
4.380000 0.037348 0.037348 0.037348 0.037348
4.410000 0.036725 0.036725 0.036725 0.036725
4.440000 0.036112 0.036112 0.036112 0.036112
4.470000 0.035508 0.035508 0.035508 0.035508
4.500000 0.034914 0.034914 0.034914 0.034914
4.530000 0.034329 0.034329 0.034329 0.034329
4.560000 0.033754 0.033754 0.033754 0.033754
4.590000 0.033189 0.033189 0.033189 0.033189
4.620000 0.032633 0.032633 0.032633 0.032633
4.650000 0.032087 0.032087 0.032087 0.032087
4.680000 0.031550 0.031550 0.031550 0.031550
4.710000 0.031023 0.031023 0.031023 0.031023
4.740000 0.030506 0.030506 0.030506 0.030506
4.770000 0.029998 0.029998 0.029998 0.029998
4.800000 0.029500 0.029500 0.029500 0.029500
4.830000 0.029011 0.029011 0.029011 0.029011
4.860000 0.028531 0.028531 0.028531 0.028531
4.890000 0.028061 0.028061 0.028061 0.028061
4.920000 0.027600 0.027600 0.027600 0.027600
4.950000 0.027147 0.027147 0.027147 0.027147
4.980000 0.026704 0.026704 0.026704 0.026704
5.010000 0.026269 0.026269 0.026269 0.026269
5.040000 0.025843 0.025843 0.025843 0.025843
5.070000 0.025426 0.025426 0.025426 0.025426
5.100000 0.025016 0.025016 0.025016 0.025016
5.130000 0.024615 0.024615 0.024615 0.024615
5.160000 0.024222 0.024222 0.024222 0.024222
5.190000 0.023837 0.023837 0.023837 0.023837
5.220000 0.023460 0.023460 0.023460 0.023460
5.250000 0.023090 0.023090 0.023090 0.023090
5.280000 0.022728 0.022728 0.022728 0.022728
5.310000 0.022373 0.022373 0.022373 0.022373
5.340000 0.022026 0.022026 0.022026 0.022026
5.370000 0.021685 0.021685 0.021685 0.021685
5.400000 0.021351 0.021351 0.021351 0.021351
5.430000 0.021024 0.021024 0.021024 0.021024
5.460000 0.020704 0.020704 0.020704 0.020704
5.490000 0.020390 0.020390 0.020390 0.020390
5.520000 0.020082 0.020082 0.020082 0.020082
5.550000 0.019781 0.019781 0.019781 0.019781
5.580000 0.019485 0.019485 0.019485 0.019485
5.610000 0.019196 0.019196 0.019196 0.019196
5.640000 0.018912 0.018912 0.018912 0.018912
5.670000 0.018633 0.018633 0.018633 0.018633
5.700000 0.018361 0.018361 0.018361 0.018361
5.730000 0.018093 0.018093 0.018093 0.018093
5.760000 0.017831 0.017831 0.017831 0.017831
5.790000 0.017574 0.017574 0.017574 0.017574
5.820000 0.017322 0.017322 0.017322 0.017322
5.850000 0.017075 0.017075 0.017075 0.017075
5.880000 0.016832 0.016832 0.016832 0.016832
5.910000 0.016594 0.016594 0.016594 0.016594
5.940000 0.016361 0.016361 0.016361 0.016361
5.970000 0.016132 0.016132 0.016132 0.016132
6.000000 0.015908 0.015908 0.015908 0.015908
